-0.314869
-0.292024
-0.252045
-0.217778
-0.177799
-0.143531
-0.080708
0.044940
0.250545
0.256256
0.193432
0.444727
0.296235
-0.160665
-0.360559
-0.377693
-0.332003
-0.411960
-0.314869
-0.377693
-0.229200
0.890204
1.963919
1.409928
0.039229
-0.463361
-0.332003
-0.417671
-0.503340
-0.326291
-0.537608
-0.411960
-0.292024
-0.503340
-0.440516
-0.440516
-0.383404
-0.377693
-0.314869
-0.332003
-0.320580
-0.206355
-0.200644
-0.063574
-0.006461
-0.080708
0.233411
0.461861
0.364770
0.707445
0.861648
0.781691
0.667466
0.404748
0.307657
0.193432
0.004961
-0.326291
-0.406249
-0.326291
-0.429094
-0.406249
-0.326291
-0.451939
-0.486206
-0.429094
-0.434805
-0.371981
-0.400538
-0.217778
-0.252045
-0.451939
-0.400538
-0.474784
-0.326291
-0.371981
-0.417671
-0.292024
-0.491918
-0.429094
-0.417671
-0.577586
-0.571875
-0.606143
-0.583298
-0.560453
-0.531896
-0.514763
-0.480495
-0.440516
-0.406249
-0.360559
-0.349136
-0.326291
-0.497629
-0.514763
-0.469073
-0.423383
-0.332003
-0.332003
0.073496
0.090630
-0.132109
-0.012173
-0.029306
-0.223489
-0.463361
-0.600431
-0.651832
-0.606143
-0.583298
-0.623276
-0.800325
-0.269179
1.215746
1.724047
0.667466
-0.303446
-0.526185
-0.491918
-0.451939
-0.554741
-0.577586
-0.497629
-0.520474
-0.583298
-0.560453
-0.606143
-0.566164
-0.440516
-0.474784
-0.543319
-0.560453
-0.491918
-0.406249
-0.343425
-0.246334
-0.132109
-0.132109
-0.035018
0.336213
0.536107
0.598931
0.781691
0.730290
0.593220
0.410460
0.147742
0.010672
-0.143531
-0.263468
-0.383404
-0.371981
-0.343425
-0.371981
-0.371981
-0.463361
-0.429094
-0.400538
-0.389115
-0.332003
-0.423383
-0.554741
-0.520474
-0.371981
-0.486206
-0.400538
-0.320580
-0.463361
-0.309158
-0.349136
-0.389115
-0.400538
-0.463361
-0.377693
-0.366270
-0.314869
-0.297735
-0.292024
-0.274890
-0.257756
-0.194933
-0.309158
-0.400538
-0.320580
-0.337714
-0.343425
-0.343425
-0.371981
-0.371981
-0.360559
-0.303446
-0.137820
0.164876
0.256256
0.199143
0.153453
0.096341
0.050651
-0.166376
-0.354848
-0.411960
-0.389115
-0.417671
-0.434805
-0.423383
0.124897
1.666934
1.958208
0.696022
-0.006461
-0.326291
-0.354848
-0.246334
-0.406249
-0.400538
-0.383404
-0.360559
-0.434805
-0.303446
0.039229
-0.183510
-0.297735
-0.057863
-0.012173
-0.086419
-0.132109
-0.063574
-0.109264
-0.063574
0.067785
0.353347
0.553241
0.473283
0.884493
1.038697
1.067253
1.044408
0.775980
0.627487
0.410460
0.244833
-0.120686
-0.046440
-0.074996
-0.194933
0.102052
0.050651
-0.040729
-0.137820
-0.080708
-0.092130
-0.132109
-0.052151
-0.274890
-0.303446
-0.160665
0.039229
0.176298
0.090630
0.004961
-0.132109
-0.012173
0.073496
-0.189221
-0.097841
-0.109264
-0.280601
-0.194933
-0.172088
-0.017884
-0.017884
-0.143531
-0.035018
-0.097841
-0.183510
-0.143531
-0.040729
0.033517
-0.012173
-0.080708
-0.172088
0.073496
0.130608
0.244833
0.364770
0.233411
0.547530
0.467572
0.696022
0.810247
0.170587
-0.012173
0.067785
0.153453
0.113475
0.004961
-0.149243
0.079207
1.295703
2.415108
1.655512
0.164876
-0.143531
-0.000750
-0.137820
-0.092130
0.073496
0.130608
0.199143
0.204855
0.164876
0.124897
0.084919
0.027806
0.107764
0.216277
0.187721
0.170587
0.159165
0.124897
0.210566
0.513262
0.775980
0.878782
0.873071
0.907338
1.341393
1.501308
1.250013
1.124366
0.855937
0.461861
0.307657
0.444727
0.330502
0.204855
0.182010
0.119186
0.307657
0.319080
0.256256
0.244833
0.176298
0.170587
0.113475
0.119186
0.062074
0.067785
0.324791
0.341925
0.261967
0.210566
0.170587
0.096341
0.164876
0.427593
0.416171
0.404748
0.290523
0.170587
0.113475
0.153453
0.290523
0.113475
0.119186
0.164876
0.096341
0.096341
0.033517
0.050651
0.147742
0.221988
0.341925
0.347636
-0.035018
0.227700
0.541818
0.421882
0.701733
0.610353
0.576086
0.650332
0.399037
0.147742
0.044940
-0.023595
-0.137820
-0.074996
-0.160665
-0.017884
0.341925
1.421351
2.483643
1.449907
0.478995
0.399037
0.164876
0.159165
-0.103553
-0.074996
0.067785
-0.137820
-0.052151
0.050651
0.096341
0.050651
-0.086419
-0.006461
0.050651
-0.017884
0.159165
0.301946
0.267678
0.301946
0.256256
0.370481
0.553241
0.821670
1.004429
0.987296
1.289992
1.301414
1.010141
0.787402
0.644621
0.524685
0.210566
0.147742
0.233411
-0.012173
0.067785
0.284812
0.136320
0.073496
0.073496
-0.012173
0.010672
0.084919
0.016384
0.102052
0.250545
0.090630
0.050651
0.267678
0.033517
-0.017884
0.250545
0.090630
-0.069285
0.010672
0.090630
0.027806
-0.006461
-0.166376
-0.103553
0.147742
0.062074
-0.092130
-0.017884
0.084919
0.016384
-0.074996
-0.172088
-0.103553
-0.012173
-0.103553
-0.137820
-0.160665
-0.029306
0.170587
0.067785
0.176298
0.461861
0.581797
0.570375
0.587508
0.638910
0.273390
-0.040729
-0.206355
-0.234911
-0.286313
-0.240623
-0.057863
-0.132109
0.741712
1.929652
1.809715
0.638910
-0.143531
-0.212066
-0.229200
-0.223489
-0.126398
0.124897
-0.177799
-0.280601
0.159165
-0.069285
-0.337714
-0.217778
-0.132109
-0.206355
-0.246334
-0.160665
-0.080708
-0.132109
-0.052151
0.233411
0.250545
0.518973
0.564663
0.518973
1.004429
1.101521
1.072964
1.061542
0.855937
0.530396
0.290523
0.233411
0.079207
-0.109264
-0.229200
-0.240623
-0.217778
-0.223489
-0.189221
-0.206355
-0.269179
-0.297735
-0.309158
-0.132109
-0.252045
-0.394826
-0.274890
-0.337714
-0.337714
-0.292024
-0.223489
-0.166376
-0.183510
-0.160665
-0.189221
-0.154954
-0.200644
-0.274890
-0.229200
-0.257756
-0.246334
-0.360559
-0.411960
-0.326291
-0.354848
-0.337714
-0.366270
-0.371981
-0.371981
-0.371981
-0.371981
-0.366270
-0.326291
-0.303446
-0.194933
-0.234911
-0.200644
0.130608
0.341925
0.376192
0.376192
0.364770
0.319080
-0.012173
-0.314869
-0.314869
-0.332003
-0.400538
-0.503340
-0.554741
-0.640410
0.216277
1.592688
1.769737
0.690311
-0.223489
-0.126398
-0.292024
-0.423383
-0.292024
-0.292024
-0.309158
-0.474784
-0.423383
-0.406249
-0.394826
-0.349136
-0.343425
-0.297735
-0.292024
-0.252045
-0.263468
-0.252045
-0.263468
-0.223489
-0.035018
0.056362
0.279101
0.621776
0.718867
0.815958
0.901627
0.833092
0.758846
0.387615
0.199143
0.056362
-0.246334
-0.309158
-0.417671
-0.400538
-0.394826
-0.389115
-0.343425
-0.326291
-0.297735
-0.274890
-0.257756
-0.394826
-0.434805
-0.394826
-0.360559
-0.320580
-0.280601
-0.246334
-0.212066
-0.172088
-0.354848
-0.440516
-0.274890
-0.280601
-0.349136
-0.343425
-0.343425
-0.343425
-0.349136
-0.349136
-0.446228
-0.480495
-0.394826
-0.354848
-0.326291
-0.257756
-0.217778
-0.326291
-0.446228
-0.457650
-0.457650
-0.457650
-0.457650
-0.451939
-0.371981
-0.292024
-0.229200
-0.177799
-0.132109
0.250545
0.387615
0.244833
0.176298
-0.280601
-0.566164
-0.571875
-0.566164
-0.514763
-0.463361
-0.326291
-0.040729
1.164344
1.998187
1.072964
-0.012173
-0.297735
-0.280601
-0.314869
-0.303446
-0.257756
-0.246334
-0.206355
-0.200644
-0.160665
-0.206355
-0.394826
-0.354848
-0.303446
-0.326291
-0.286313
-0.229200
-0.177799
-0.114975
-0.126398
-0.006461
0.381903
0.427593
0.404748
0.558952
0.718867
0.895916
0.798825
0.616065
0.433305
0.341925
0.142031
-0.109264
-0.166376
-0.309158
-0.320580
-0.297735
-0.343425
-0.337714
-0.360559
-0.440516
-0.423383
-0.360559
-0.406249
-0.423383
-0.417671
-0.394826
-0.406249
-0.394826
-0.320580
-0.154954
-0.126398
-0.394826
-0.434805
-0.429094
-0.429094
-0.429094
-0.509051
-0.337714
-0.326291
-0.451939
-0.423383
-0.429094
-0.451939
-0.451939
-0.463361
-0.446228
-0.360559
-0.349136
-0.371981
-0.509051
-0.526185
-0.400538
-0.423383
-0.320580
-0.200644
-0.074996
0.027806
0.142031
0.227700
0.210566
0.393326
0.296235
-0.074996
-0.269179
-0.383404
-0.349136
-0.292024
-0.446228
-0.543319
-0.229200
0.810247
1.821138
1.518442
0.530396
-0.252045
-0.400538
-0.206355
-0.269179
-0.246334
-0.149243
-0.166376
-0.309158
-0.314869
-0.263468
-0.229200
-0.126398
-0.297735
-0.394826
-0.371981
-0.423383
-0.246334
-0.074996
-0.097841
-0.029306
0.376192
0.347636
0.324791
0.821670
0.741712
0.913049
1.152922
0.827381
0.644621
0.370481
0.119186
0.039229
-0.160665
-0.332003
-0.240623
-0.240623
-0.166376
-0.126398
-0.389115
-0.417671
-0.326291
-0.177799
-0.337714
-0.292024
-0.092130
-0.343425
-0.137820
-0.114975
-0.252045
-0.132109
-0.120686
-0.092130
-0.080708
-0.046440
-0.217778
-0.274890
-0.160665
-0.092130
-0.160665
-0.274890
-0.223489
-0.200644
-0.183510
-0.149243
-0.126398
-0.114975
-0.109264
-0.126398
-0.097841
-0.000750
0.102052
0.056362
0.090630
0.290523
0.324791
0.478995
0.473283
0.399037
0.450438
0.084919
-0.240623
-0.143531
-0.206355
-0.383404
-0.292024
-0.309158
-0.223489
0.633198
2.061010
2.043877
0.496128
-0.154954
-0.303446
-0.451939
-0.326291
-0.280601
-0.246334
-0.212066
-0.200644
-0.154954
-0.149243
-0.337714
-0.280601
-0.223489
-0.217778
-0.177799
-0.143531
-0.052151
-0.206355
-0.120686
-0.092130
0.124897
0.473283
0.587508
0.815958
0.975873
1.250013
1.152922
1.095809
1.004429
0.610353
0.341925
0.176298
0.256256
0.022095
-0.160665
-0.040729
0.010672
-0.012173
-0.183510
-0.143531
-0.114975
-0.097841
-0.006461
-0.177799
-0.252045
-0.149243
-0.126398
-0.177799
-0.023595
0.113475
0.067785
-0.029306
-0.029306
0.056362
-0.137820
-0.177799
-0.160665
-0.246334
-0.132109
-0.114975
-0.252045
-0.286313
-0.240623
-0.229200
-0.194933
-0.172088
-0.189221
-0.212066
-0.166376
-0.035018
-0.172088
-0.343425
-0.252045
-0.194933
-0.189221
-0.212066
-0.154954
-0.114975
0.056362
0.393326
0.439016
0.359058
0.461861
0.570375
0.336213
0.159165
0.027806
-0.206355
-0.183510
-0.246334
-0.377693
-0.389115
0.256256
1.752603
2.357995
1.010141
-0.200644
-0.166376
-0.160665
0.050651
-0.000750
-0.394826
-0.269179
-0.234911
-0.097841
-0.046440
-0.149243
-0.040729
-0.166376
-0.269179
-0.337714
-0.303446
-0.109264
-0.120686
-0.086419
-0.017884
0.164876
0.307657
0.558952
0.810247
0.901627
1.227168
1.215746
1.078676
0.867359
0.530396
0.399037
0.130608
0.159165
0.119186
-0.000750
0.022095
-0.177799
0.787402
0.661755
0.524685
0.507551
0.473283
0.433305
0.444727
0.456150
0.461861
0.524685
0.547530
0.536107
0.541818
0.541818
0.541818
0.513262
0.513262
0.507551
0.478995
0.490417
0.473283
0.410460
0.364770
0.107764
-0.183510
-0.383404
-0.594720
-0.600431
-0.691811
-0.971662
-1.080176
-1.045909
-1.000219
-0.971662
-0.908839
-0.766057
-0.737501
-0.794614
-0.788902
-0.851726
-0.897416
-0.868860
-0.863149
-0.783191
-0.589009
-0.474784
-0.429094
-0.120686
0.159165
0.182010
0.204855
0.199143
0.296235
0.416171
0.427593
0.427593
0.427593
0.433305
0.421882
0.404748
0.387615
0.370481
0.359058
0.336213
0.359058
0.370481
0.370481
0.370481
0.410460
0.439016
0.404748
0.564663
0.393326
-0.012173
-0.103553
-0.240623
-0.269179
-0.269179
-0.314869
-0.303446
-0.469073
-0.326291
-0.223489
-0.097841
0.558952
0.867359
1.147211
1.312837
1.118654
1.015852
0.798825
0.781691
0.673177
0.718867
0.627487
0.621776
0.616065
0.370481
0.638910
1.729758
6.869881
7.121176
1.152922
0.610353
1.152922
0.838803
0.987296
0.793113
0.953028
0.861648
0.987296
1.072964
1.244302
1.318548
1.301414
1.318548
1.227168
1.329971
1.478463
1.626955
1.769737
1.992475
2.306594
2.397974
2.666403
3.049056
3.191837
3.363175
3.551646
3.603047
3.488822
3.111880
2.643558
2.335150
2.003898
1.666934
1.512731
1.512731
1.529864
1.541287
1.569843
1.558421
1.661223
1.746892
1.804004
1.946785
1.941074
2.009609
2.083855
2.083855
2.049588
1.918229
1.855405
1.832560
1.809715
1.729758
1.689779
1.684068
1.609822
1.626955
1.569843
1.472752
1.461329
1.449907
1.455618
1.455618
1.455618
1.432773
1.404217
1.375661
1.352816
1.329971
1.301414
1.244302
1.124366
0.993007
0.884493
0.844515
0.713156
0.604642
0.598931
0.450438
0.336213
-0.069285
-0.389115
-0.166376
-0.086419
-0.086419
-0.086419
-0.086419
-0.080708
-0.103553
-0.154954
-0.274890
-0.246334
-0.326291
-0.526185
-0.543319
-0.531896
-0.514763
-0.491918
-0.486206
-0.514763
-0.554741
-0.526185
-0.646121
-0.806036
-0.788902
-0.806036
-0.817459
-0.840304
-0.817459
-0.674677
-0.537608
-0.486206
-0.434805
-0.257756
-0.366270
-0.531896
-0.720367
-1.125866
-1.200112
-1.417140
-1.554210
-1.622745
-1.919730
-1.936863
-2.199581
-1.862617
-1.337182
2.911986
5.750477
0.216277
-2.033955
-1.114444
-1.451407
-1.080176
-1.222957
-1.045909
-1.040197
-0.977374
-0.903127
-0.897416
-0.777480
-0.680389
-0.520474
-0.389115
-0.172088
0.073496
0.387615
0.593220
0.815958
1.055831
1.375661
1.746892
1.923940
2.158102
2.363706
2.529333
2.637846
2.455086
2.135257
1.724047
1.364238
1.187189
0.987296
0.770268
0.650332
0.650332
0.661755
0.650332
0.656043
0.661755
0.724578
0.804536
0.821670
0.775980
0.730290
0.707445
0.644621
0.627487
0.553241
0.593220
0.787402
0.775980
0.718867
0.696022
0.638910
0.530396
0.473283
0.484706
0.496128
0.513262
0.524685
0.581797
0.553241
0.496128
0.461861
0.404748
0.404748
0.387615
0.427593
0.490417
0.456150
0.427593
0.410460
0.370481
0.387615
0.399037
0.399037
0.399037
0.399037
0.490417
0.478995
0.404748
0.359058
0.296235
0.239122
0.142031
0.050651
-0.006461
-0.035018
-0.063574
-0.103553
-0.126398
-0.160665
-0.172088
-0.172088
-0.234911
-0.309158
-0.332003
-0.269179
-0.217778
-0.160665
-0.114975
-0.206355
-0.223489
-0.109264
-0.057863
-0.040729
0.147742
0.376192
0.450438
0.587508
0.690311
0.764557
0.958739
0.993007
0.958739
1.050119
1.204323
1.324259
1.329971
1.649800
1.838272
1.558421
1.432773
1.130077
0.924472
0.838803
0.804536
0.775980
0.656043
0.730290
0.484706
0.736001
1.318548
5.921814
8.731748
3.226105
0.958739
1.735469
1.369949
1.529864
1.318548
1.409928
1.347104
1.324259
1.467041
1.626955
1.746892
1.906807
1.992475
2.061010
2.198080
2.192369
2.198080
2.295172
2.495065
2.586445
2.632135
2.786339
3.191837
3.620181
3.717272
3.745829
3.802941
3.528801
3.180415
2.832029
2.329439
1.901095
1.518442
1.215746
0.935894
0.736001
0.690311
0.656043
0.633198
0.490417
0.284812
0.147742
0.084919
0.056362
0.039229
-0.000750
-0.080708
-0.143531
-0.326291
-0.417671
-0.394826
-0.400538
-0.474784
-0.577586
-0.663255
-0.806036
-0.840304
-0.811747
-0.703234
-0.646121
-0.680389
-0.703234
-0.708945
-0.794614
-0.977374
-0.994507
-1.011641
-1.051620
-1.097310
-1.222957
-1.228669
-1.228669
-1.228669
-1.222957
-1.228669
-1.177267
-1.285781
-1.400006
-1.360027
-1.382872
-1.354316
-1.422851
-1.542787
-1.542787
-1.542787
-1.531365
-1.605611
-1.657012
-1.622745
-1.594188
-1.582766
-1.537076
-1.577055
-1.696991
-1.634167
-1.588477
-1.577055
-1.554210
-1.537076
-1.508520
-1.537076
-1.542787
-1.565632
-1.582766
-1.742681
-1.942575
-1.919730
-1.891173
-1.874040
-1.839772
-1.822638
-1.782660
-1.754103
-1.702702
-1.674146
-1.611322
-1.508520
-1.354316
-1.245802
-1.262936
-1.257225
-1.457118
-1.582766
-1.548498
-1.696991
-1.554210
-1.582766
-1.451407
-1.462830
-1.457118
-1.285781
0.581797
5.830434
4.088503
-1.331471
-1.074465
-0.800325
-0.726079
-0.668966
-0.680389
-0.423383
-0.503340
-0.337714
-0.337714
-0.229200
-0.257756
-0.274890
-0.286313
-0.309158
-0.343425
-0.394826
-0.326291
-0.280601
-0.189221
0.016384
0.239122
0.433305
0.798825
1.027274
1.032986
1.118654
1.101521
1.015852
0.633198
0.153453
-0.143531
-0.474784
-0.697522
-0.874571
-1.085887
-1.182979
-1.228669
-1.297204
-1.297204
-1.262936
-1.234380
-1.200112
-1.171556
-1.080176
-0.943106
-0.811747
-0.766057
-0.777480
-0.771769
-0.771769
-0.771769
-0.760346
-0.714656
-0.623276
-0.509051
-0.537608
-0.543319
-0.411960
-0.389115
-0.406249
-0.394826
-0.400538
-0.400538
-0.371981
-0.320580
-0.240623
-0.246334
-0.183510
-0.046440
-0.057863
-0.057863
-0.057863
-0.052151
-0.063574
0.004961
0.016384
-0.194933
-0.206355
-0.103553
-0.046440
0.004961
0.050651
0.050651
0.090630
0.210566
0.233411
0.182010
0.176298
0.056362
-0.343425
-0.531896
-0.486206
-0.474784
-0.457650
-0.457650
-0.457650
-0.480495
-0.389115
-0.337714
-0.343425
-0.343425
-0.337714
-0.354848
-0.297735
-0.092130
-0.046440
-0.154954
-0.189221
-0.120686
-0.314869
-0.463361
-0.571875
-0.846015
-0.903127
-1.137289
-1.160134
-1.428562
-1.439985
-1.445696
-1.634167
-1.497097
-0.337714
4.968036
4.419756
-1.308626
-1.531365
-1.428562
-1.605611
-1.577055
-1.805505
-1.645590
-1.976842
-1.982553
-2.016821
-1.976842
-1.971131
-1.914018
-1.742681
-1.674146
-1.599900
-1.525653
-1.428562
-1.331471
-1.194401
-1.034486
-0.834592
-0.589009
-0.274890
-0.046440
0.130608
0.256256
0.239122
0.044940
-0.280601
-0.697522
-1.257225
-1.639878
-1.959708
-2.171024
-2.245271
-2.365207
-2.336651
-2.336651
-2.319517
-2.302383
-2.325228
-2.336651
-2.342362
-2.353784
-2.376629
-2.365207
-2.393763
-2.393763
-2.359496
-2.273827
-2.102490
-2.102490
-2.273827
-2.308094
-2.273827
-2.330939
-2.376629
-2.365207
-2.336651
-2.353784
-2.256693
-2.039666
-1.891173
-1.799793
-1.754103
-1.719836
-1.674146
-1.525653
-1.400006
-1.365739
-1.325760
-1.285781
-1.262936
-1.285781
-1.285781
-1.280070
-1.308626
-1.342894
-1.434273
-1.445696
-1.382872
-1.331471
-1.274359
-1.234380
-1.194401
-1.154422
-1.120155
-1.085887
-1.034486
-0.960240
-0.903127
-0.880282
-0.891705
-0.863149
-0.857437
-0.851726
-0.823170
-0.737501
-0.571875
-0.377693
-0.143531
0.022095
0.279101
0.461861
0.216277
0.067785
-0.012173
-0.086419
-0.092130
-0.217778
-0.160665
-0.343425
-0.172088
-0.411960
-0.429094
-0.229200
2.506488
6.995529
2.997655
-1.291492
-0.349136
-0.680389
-0.634699
-0.811747
-0.885994
-0.754635
-0.754635
-0.497629
-0.429094
-0.320580
-0.297735
-0.217778
-0.069285
0.050651
0.153453
0.387615
0.701733
0.878782
1.044408
1.227168
1.409928
1.718335
2.072433
2.260904
2.203792
2.146679
2.112412
1.786870
1.215746
0.684600
0.244833
-0.120686
-0.423383
-0.566164
-0.594720
-0.549030
-0.480495
-0.434805
-0.383404
-0.332003
-0.292024
-0.274890
-0.246334
-0.177799
-0.086419
-0.092130
-0.160665
-0.029306
0.170587
0.204855
0.176298
0.170587
0.147742
0.136320
0.221988
0.359058
0.404748
0.393326
0.376192
0.359058
0.467572
0.558952
0.541818
0.541818
0.541818
0.541818
0.541818
0.558952
0.587508
0.570375
0.564663
0.661755
0.518973
0.410460
0.518973
0.473283
0.484706
0.558952
0.536107
0.524685
0.507551
0.490417
0.484706
0.507551
0.513262
0.507551
0.518973
0.490417
0.490417
0.456150
0.461861
0.553241
0.587508
0.616065
0.621776
0.730290
0.713156
0.747423
0.993007
0.993007
0.873071
0.690311
0.478995
0.336213
0.336213
0.233411
0.307657
0.170587
0.256256
0.096341
-0.063574
0.296235
1.935363
7.326781
5.967504
0.256256
0.336213
0.301946
0.221988
0.364770
0.199143
0.330502
0.147742
0.216277
0.113475
0.096341
0.182010
0.370481
0.307657
0.364770
0.781691
0.964451
0.975873
1.038697
1.175767
1.238591
1.181478
1.170056
1.341393
1.524153
1.581266
1.484174
1.318548
1.084387
0.633198
0.102052
-0.360559
-0.623276
-0.857437
-1.103021
-1.160134
-1.205824
-1.320049
-1.348605
-1.354316
-1.388584
-1.451407
-1.445696
-1.394295
-1.400006
-1.337182
-1.388584
-1.479963
-1.508520
-1.617033
-1.657012
-1.742681
-1.805505
-1.851195
-1.931152
-1.936863
-1.971131
-1.993976
-1.993976
-1.965420
-1.931152
-1.914018
-1.879751
-1.862617
-1.845483
-1.908307
-1.942575
-1.896885
-1.885462
-1.851195
-1.839772
-1.754103
-1.599900
-1.599900
-1.634167
-1.645590
-1.662723
-1.645590
-1.662723
-1.754103
-1.782660
-1.759815
-1.776948
-1.765526
-1.788371
-1.908307
-1.936863
-1.891173
-1.868328
-1.834061
-1.811216
-1.776948
-1.759815
-1.731258
-1.645590
-1.565632
-1.519942
-1.451407
-1.285781
-1.103021
-0.983085
-0.914550
-0.857437
-0.806036
-0.703234
-0.531896
-0.451939
-0.411960
-0.360559
-0.280601
-0.097841
0.004961
0.187721
0.433305
0.576086
0.873071
0.873071
0.581797
0.444727
0.147742
0.102052
-0.023595
0.027806
0.027806
0.033517
0.290523
-0.109264
0.164876
0.193432
4.522558
7.538097
4.414045
2.272327
0.324791
-0.320580
-0.451939
-0.400538
-0.326291
-0.686100
-0.349136
-0.097841
1.432773
3.266084
1.415639
-0.200644
-0.526185
-0.697522
-0.514763
-0.514763
-0.429094
-0.594720
-0.383404
-0.320580
-0.549030
-0.549030
-0.417671
-0.172088
-0.143531
-0.183510
-0.114975
0.022095
0.084919
0.210566
0.507551
0.536107
0.541818
0.644621
0.827381
1.038697
1.067253
1.278569
1.392794
1.381372
1.421351
1.170056
0.890204
0.656043
0.416171
0.313368
0.353347
0.341925
0.267678
0.313368
0.044940
-0.000750
0.227700
0.187721
0.153453
0.044940
0.067785
0.033517
-0.120686
-0.166376
-0.177799
-0.143531
-0.137820
-0.263468
-0.326291
-0.263468
-0.360559
-0.514763
-0.526185
-0.446228
-0.491918
-0.429094
-0.314869
-0.297735
-0.194933
-0.349136
-0.457650
-0.337714
-0.383404
-0.394826
-0.417671
-0.377693
-0.303446
-0.280601
-0.194933
-0.257756
-0.252045
-0.143531
-0.086419
-0.063574
0.062074
0.307657
0.541818
0.701733
0.558952
0.359058
0.324791
0.364770
0.313368
0.319080
0.164876
0.136320
-0.017884
-0.172088
0.187721
0.907338
3.094746
2.814895
0.587508
0.176298
-0.120686
-0.160665
-0.332003
-0.354848
-0.172088
-0.269179
-0.194933
-0.274890
-0.314869
-0.292024
-0.280601
-0.246334
-0.240623
-0.206355
-0.109264
-0.154954
-0.012173
0.187721
0.102052
0.136320
0.147742
0.050651
0.022095
0.124897
0.164876
0.027806
-0.040729
0.084919
0.256256
0.199143
-0.012173
-0.212066
-0.383404
-0.549030
-0.703234
-0.737501
-0.846015
-0.988796
-0.983085
-1.000219
-0.954529
-0.783191
-0.800325
-0.937395
-0.920261
-0.857437
-0.857437
-0.800325
-0.794614
-0.851726
-0.646121
-0.606143
-0.714656
-0.668966
-0.668966
-0.651832
-0.640410
-0.611854
-0.600431
-0.668966
-0.606143
-0.389115
-0.326291
-0.303446
-0.257756
-0.246334
-0.206355
-0.280601
-0.252045
-0.246334
-0.423383
-0.446228
-0.297735
-0.046440
0.016384
-0.143531
-0.132109
0.084919
0.073496
0.164876
0.473283
0.381903
0.341925
0.187721
0.033517
-0.114975
-0.263468
-0.114975
-0.120686
-0.080708
-0.332003
0.187721
0.724578
2.226637
3.648737
1.507019
0.090630
-0.103553
-0.354848
-0.246334
-0.337714
-0.206355
-0.177799
-0.194933
0.016384
0.199143
-0.092130
-0.240623
-0.160665
-0.137820
-0.069285
0.039229
0.187721
0.199143
0.204855
0.227700
0.233411
0.450438
0.627487
0.667466
0.638910
0.547530
0.753135
0.844515
0.821670
0.890204
0.787402
0.724578
0.473283
0.399037
0.536107
0.496128
0.478995
0.478995
0.433305
0.456150
0.718867
0.793113
0.753135
0.775980
0.770268
0.878782
0.907338
0.804536
0.724578
0.690311
0.656043
0.638910
0.581797
0.604642
0.564663
0.347636
0.341925
0.467572
0.433305
0.353347
0.376192
0.393326
0.404748
0.439016
0.478995
0.553241
0.576086
0.530396
0.530396
0.490417
0.484706
0.547530
0.484706
0.621776
0.730290
0.718867
0.764557
0.753135
0.821670
0.924472
1.255724
1.467041
1.335682
1.044408
0.821670
0.724578
0.638910
0.713156
0.404748
0.478995
0.193432
0.296235
0.890204
2.026743
4.002835
2.580734
0.696022
0.410460
0.399037
0.501840
0.307657
0.530396
0.416171
0.359058
0.330502
0.301946
0.313368
0.450438
0.593220
0.570375
0.741712
0.707445
0.678888
0.627487
0.593220
0.536107
0.496128
0.690311
0.804536
0.867359
0.730290
0.758846
0.964451
0.941606
1.050119
0.998718
0.793113
0.621776
0.341925
0.290523
0.147742
-0.172088
-0.280601
-0.326291
-0.337714
-0.394826
-0.400538
-0.411960
-0.337714
-0.126398
-0.103553
-0.006461
0.170587
0.204855
0.187721
0.159165
0.159165
0.067785
0.102052
0.073496
0.022095
0.073496
-0.080708
-0.189221
-0.246334
-0.063574
-0.029306
-0.126398
-0.063574
-0.240623
-0.240623
-0.172088
-0.166376
-0.080708
-0.132109
-0.143531
-0.194933
-0.200644
-0.206355
-0.349136
-0.343425
-0.292024
-0.292024
-0.252045
-0.194933
-0.057863
0.313368
0.387615
0.279101
0.107764
-0.166376
-0.257756
-0.160665
-0.189221
-0.052151
0.199143
-0.229200
0.102052
0.553241
2.426530
3.545935
1.198612
0.084919
-0.132109
0.124897
0.433305
0.022095
0.113475
0.130608
0.033517
0.004961
-0.172088
-0.292024
-0.292024
-0.480495
-0.480495
-0.549030
-0.766057
-0.737501
-0.731790
-0.828881
-0.731790
-0.531896
-0.486206
-0.429094
-0.371981
-0.377693
-0.343425
-0.337714
-0.297735
-0.132109
-0.137820
-0.377693
-0.434805
-0.451939
-0.737501
-0.857437
-0.960240
-1.068754
-1.114444
-1.291492
-1.291492
-1.262936
-1.468541
-1.474252
-1.165845
-1.091599
-0.971662
-0.931684
-1.205824
-1.188690
-0.943106
-0.988796
-1.200112
-1.137289
-1.177267
-1.240091
-1.165845
-0.914550
-0.771769
-1.011641
-1.143000
-1.165845
-1.148711
-1.103021
-1.097310
-1.057331
-1.045909
-1.005930
-0.971662
-0.925972
-0.885994
-0.920261
-0.983085
-0.914550
-0.731790
-0.840304
-0.863149
-0.777480
-0.754635
-0.771769
-0.897416
-1.011641
-1.302915
-1.342894
-1.445696
-1.154422
-1.137289
-1.074465
-0.383404
0.507551
2.278038
1.432773
-0.223489
-0.566164
-1.068754
-0.914550
-0.971662
-0.908839
-0.697522
-0.651832
-0.794614
-0.885994
-0.754635
-0.760346
-0.737501
-0.703234
-0.697522
-0.720367
-0.640410
-0.543319
-0.480495
-0.429094
-0.423383
-0.440516
-0.389115
-0.274890
-0.160665
-0.114975
-0.000750
0.239122
0.244833
0.290523
0.153453
-0.166376
-0.337714
-0.514763
-0.657544
-0.754635
-0.754635
-0.811747
-0.874571
-0.908839
-1.017352
-1.045909
-1.000219
-0.971662
-0.948817
-0.965951
-0.983085
-1.005930
-1.023064
-1.045909
-1.103021
-1.143000
-1.217246
-1.097310
-0.948817
-1.005930
-1.097310
-1.171556
-1.114444
-1.194401
-1.360027
-1.320049
-1.217246
-1.165845
-1.302915
-1.268647
-1.200112
-1.177267
-1.131577
-1.051620
-1.080176
-1.422851
-1.422851
-1.285781
-1.160134
-0.954529
-0.754635
-0.680389
-0.720367
-0.857437
-1.045909
-1.097310
-1.462830
-1.422851
-1.394295
-1.462830
-1.531365
-1.377161
-0.994507
-0.229200
1.861117
1.284281
-0.686100
-1.131577
-1.342894
-1.177267
-1.205824
-1.148711
-1.103021
-1.097310
-1.034486
-1.034486
-0.977374
-0.960240
-0.925972
-0.908839
-0.880282
-0.937395
-0.925972
-0.743212
-0.663255
-0.577586
-0.394826
-0.417671
-0.417671
-0.183510
-0.029306
0.004961
0.136320
0.296235
0.341925
0.421882
0.410460
0.216277
-0.080708
-0.274890
-0.343425
-0.383404
-0.371981
-0.594720
-0.754635
-0.691811
-0.703234
-0.817459
-0.834592
-0.748924
-0.708945
-0.703234
-0.731790
-0.748924
-0.766057
-0.788902
-0.800325
-0.800325
-0.800325
-0.800325
-0.800325
-0.760346
-0.697522
-0.583298
-0.497629
-0.469073
-0.394826
-0.383404
-0.183510
-0.149243
-0.200644
0.033517
0.050651
0.096341
0.164876
0.102052
0.107764
0.079207
0.039229
0.159165
0.027806
0.090630
0.439016
0.484706
0.678888
0.907338
0.787402
0.484706
0.364770
0.227700
0.233411
0.039229
-0.086419
-0.263468
-0.035018
0.570375
1.170056
3.420287
2.974810
0.753135
0.416171
0.084919
0.216277
0.284812
0.267678
0.313368
0.261967
0.416171
0.478995
0.484706
0.496128
0.507551
0.530396
0.427593
0.370481
0.478995
0.553241
0.581797
0.667466
0.815958
0.844515
0.895916
1.044408
1.170056
1.232879
1.455618
1.586977
1.615533
1.815427
1.684068
1.398506
1.158633
0.964451
0.935894
0.958739
0.970162
1.004429
0.981584
0.930183
0.873071
0.798825
1.032986
1.170056
1.124366
1.170056
1.164344
1.175767
1.101521
1.010141
0.918761
0.958739
1.181478
1.181478
1.095809
1.044408
0.993007
0.975873
0.935894
0.924472
0.884493
0.873071
0.827381
0.804536
0.930183
0.901627
0.844515
0.793113
0.775980
0.953028
0.958739
0.913049
0.907338
0.861648
0.855937
0.901627
0.987296
1.050119
1.135788
1.175767
0.987296
0.633198
0.587508
0.399037
0.301946
0.387615
0.456150
0.553241
0.244833
0.593220
1.210034
2.991944
3.700139
1.701202
0.753135
0.507551
0.490417
0.444727
0.267678
0.410460
0.296235
0.244833
0.273390
0.239122
0.444727
0.553241
0.501840
0.501840
0.484706
0.524685
0.541818
0.644621
0.576086
0.376192
0.364770
0.461861
0.587508
0.604642
0.621776
0.656043
0.678888
0.787402
0.804536
0.787402
0.673177
0.376192
-0.017884
-0.257756
-0.263468
-0.389115
-0.451939
-0.520474
-0.554741
-0.429094
-0.434805
-0.423383
-0.429094
-0.429094
-0.429094
-0.417671
-0.354848
-0.337714
-0.349136
-0.337714
-0.349136
-0.343425
-0.332003
-0.314869
-0.309158
-0.371981
-0.326291
-0.411960
-0.537608
-0.469073
-0.463361
-0.440516
-0.406249
-0.406249
-0.097841
0.084919
-0.109264
-0.120686
-0.080708
-0.063574
0.096341
0.187721
0.199143
0.319080
0.587508
0.821670
0.844515
0.781691
0.770268
0.724578
0.496128
0.393326
0.256256
0.073496
0.130608
0.256256
0.450438
0.267678
0.553241
0.753135
2.192369
4.082792
2.409396
0.861648
0.656043
0.473283
0.627487
0.530396
0.593220
0.558952
0.616065
0.690311
0.638910
0.621776
0.587508
0.536107
0.616065
0.707445
0.644621
0.604642
0.547530
0.536107
0.616065
0.867359
1.038697
1.147211
1.198612
1.329971
1.815427
1.923940
1.804004
1.821138
1.741180
1.758314
1.649800
1.369949
1.227168
1.072964
0.930183
0.895916
0.833092
0.804536
0.833092
0.850226
0.884493
0.890204
0.850226
0.798825
0.747423
0.701733
0.638910
0.610353
0.587508
0.576086
0.547530
0.536107
0.467572
0.404748
0.347636
0.250545
0.467572
0.381903
0.119186
0.153453
0.136320
0.147742
0.136320
0.170587
0.233411
0.221988
0.193432
0.199143
0.107764
0.096341
-0.035018
-0.166376
0.124897
-0.035018
-0.177799
-0.069285
0.010672
0.296235
0.130608
-0.194933
-0.269179
-0.286313
-0.628988
-0.674677
-0.531896
-0.674677
-0.560453
-0.743212
-0.343425
0.204855
1.786870
2.809184
0.758846
-0.451939
-0.697522
-0.828881
-0.931684
-1.160134
-1.148711
-1.257225
-1.154422
-1.171556
-1.182979
-1.154422
-1.205824
-1.211535
-1.177267
-1.120155
-1.085887
-1.040197
-1.023064
-1.034486
-0.925972
-0.788902
-0.708945
-0.646121
-0.566164
-0.514763
-0.411960
-0.206355
-0.183510
-0.114975
-0.092130
-0.314869
-0.514763
-0.503340
-0.560453
-0.714656
-0.840304
-1.040197
-1.063042
-1.154422
-1.188690
-1.302915
-1.434273
-1.371450
-1.337182
-1.291492
-1.519942
-1.645590
-0.788902
-0.891705
-0.874571
-0.920261
-1.103021
-1.085887
-1.040197
-0.920261
-0.788902
-0.766057
-0.703234
-0.668966
-0.617565
-0.543319
-0.366270
-0.103553
0.107764
0.124897
0.039229
-0.063574
-0.257756
-0.440516
-0.480495
-0.257756
-0.354848
-0.074996
0.096341
0.096341
1.004429
4.402622
8.720326
5.813300
-0.194933
-2.233848
-1.565632
-0.223489
-0.274890
-0.223489
-0.097841
-0.120686
-0.035018
0.084919
0.370481
0.444727
0.530396
0.536107
0.924472
1.335682
1.541287
1.878250
2.215214
2.774916
3.334619
3.477400
3.357464
2.997655
2.466509
1.998187
1.552709
1.335682
1.278569
1.215746
1.187189
0.964451
0.736001
0.741712
0.747423
0.701733
0.764557
0.673177
0.536107
0.644621
0.604642
0.450438
0.284812
0.084919
-0.046440
-0.120686
-0.017884
0.056362
0.113475
0.227700
0.233411
0.147742
-0.035018
0.124897
0.427593
0.404748
0.444727
0.478995
0.518973
0.713156
0.787402
0.798825
0.873071
0.753135
0.484706
0.136320
-0.109264
-0.206355
-0.451939
-0.549030
-0.571875
-0.337714
-0.423383
-0.194933
0.707445
3.768674
7.623766
4.556826
-1.280070
-2.793551
-1.925441
-1.011641
-0.863149
-0.697522
-0.554741
-0.423383
-0.183510
-0.086419
-0.120686
-0.354848
-0.406249
-0.240623
0.004961
0.227700
0.353347
0.678888
0.918761
1.095809
1.489886
1.724047
1.626955
1.135788
0.564663
0.216277
-0.103553
-0.411960
-0.891705
-1.417140
-1.622745
-1.617033
-1.582766
-1.559921
-1.531365
-1.497097
-1.462830
-1.417140
-1.394295
-1.297204
-1.137289
-1.034486
-0.983085
-0.903127
-0.880282
-1.017352
-1.074465
-1.017352
-1.005930
-0.977374
-0.943106
-0.977374
-1.034486
-1.028775
-1.005930
-1.000219
-0.983085
-0.960240
-0.925972
-0.908839
-0.880282
-0.851726
-0.771769
-0.543319
-0.566164
-0.463361
-0.126398
0.124897
0.079207
-0.463361
-0.686100
-0.640410
-0.668966
-0.823170
-1.005930
-1.297204
-1.131577
-1.314337
-1.405717
-0.212066
2.929120
7.286802
5.362112
-0.543319
-2.764994
-1.976842
-0.874571
-0.874571
-0.703234
-0.554741
-0.577586
-0.463361
-0.474784
-0.383404
-0.286313
-0.017884
0.227700
0.307657
0.404748
0.713156
1.347104
1.883962
2.106700
2.346573
2.477931
2.289460
1.843983
1.050119
0.221988
-0.423383
-0.954529
-1.234380
-1.571343
-1.971131
-2.011110
-1.982553
-2.022532
-1.959708
-2.051088
-2.228137
-2.245271
-2.239559
-2.330939
-2.370918
-2.405186
-2.445164
-2.325228
-2.273827
-2.250982
-2.233848
-2.159602
-1.988265
-1.896885
-1.828350
-1.862617
-1.874040
-1.931152
-2.262404
-2.445164
-2.405186
-2.519411
-2.685037
-2.673614
-2.530833
-2.405186
-2.485143
-2.690748
-2.782128
-2.690748
-2.393763
-2.022532
-1.936863
-1.845483
-1.559921
-1.497097
-1.422851
-1.565632
-1.965420
-2.056800
-1.993976
-2.039666
-1.959708
-2.028243
-2.011110
-2.011110
-2.125335
-1.411428
0.701733
5.322133
5.904680
0.250545
-3.210472
-3.004867
-1.908307
-1.571343
-1.794082
-2.011110
-2.113912
-2.033955
-2.028243
-2.113912
-2.205292
-2.005398
-1.822638
-1.605611
-1.291492
-0.920261
-0.309158
0.221988
0.467572
0.838803
1.324259
1.398506
1.067253
0.473283
-0.177799
-0.617565
-0.971662
-1.377161
-1.674146
-1.788371
-2.011110
-2.165313
-2.113912
-2.096778
-2.062511
-2.022532
-2.005398
-1.925441
-1.839772
-1.828350
-1.828350
-1.828350
-1.828350
-1.828350
-1.788371
-1.731258
-1.696991
-1.605611
-1.479963
-1.354316
-1.548498
-1.822638
-1.754103
-1.679857
-1.594188
-1.434273
-1.280070
-1.177267
-1.120155
-1.051620
-1.000219
-0.954529
-0.977374
-0.937395
-0.794614
-0.440516
0.079207
0.244833
0.598931
1.170056
1.141499
1.038697
0.833092
0.524685
0.376192
-0.006461
-0.052151
-0.263468
-0.366270
-0.469073
-0.760346
-0.194933
1.969630
6.675699
6.504361
0.844515
-2.039666
-2.102490
-0.960240
-0.371981
-0.257756
0.062074
0.187721
0.439016
0.541818
0.707445
0.861648
0.993007
1.284281
1.467041
1.626955
1.781159
2.078144
2.557889
2.683536
3.026211
3.488822
3.408865
3.060479
2.352284
1.655512
1.324259
0.981584
0.684600
0.610353
0.570375
0.513262
0.473283
0.410460
0.359058
0.296235
0.250545
0.210566
0.170587
0.130608
0.084919
0.159165
0.233411
0.324791
0.341925
0.359058
0.564663
0.684600
0.850226
0.935894
0.924472
0.964451
0.970162
0.998718
0.998718
0.993007
1.004429
1.010141
1.124366
1.267147
1.284281
1.204323
1.369949
1.632667
1.564132
1.878250
2.420819
2.312305
2.100989
2.009609
1.918229
1.889673
1.804004
1.826849
1.701202
1.752603
1.632667
1.729758
2.546466
5.333556
9.782618
7.966441
2.460798
0.775980
0.913049
1.861117
2.335150
2.192369
2.300883
2.215214
2.278038
2.232348
2.266615
2.437953
2.540755
2.774916
3.083324
3.545935
3.985701
4.573960
5.299288
5.761899
6.270200
6.584319
6.550051
6.298756
6.030328
5.670519
5.133662
4.711029
4.157038
3.717272
3.408865
3.129014
3.134725
3.157570
3.157570
3.203260
3.248950
3.231816
3.191837
3.180415
3.134725
3.129014
3.100458
3.117591
3.254661
3.248950
3.180415
3.140436
3.089035
3.014789
2.929120
2.797761
2.546466
2.403685
2.432241
2.375129
2.443664
2.660691
2.615001
2.837740
3.094746
2.991944
2.740649
2.215214
1.918229
1.941074
1.843983
1.889673
1.775448
1.832560
1.781159
1.729758
2.529333
5.110817
9.622703
8.257715
2.392263
0.084919
0.056362
0.964451
1.421351
1.644089
1.832560
1.684068
1.981053
1.986764
2.032454
2.363706
2.712093
2.917698
3.174704
3.683005
3.860054
4.139905
4.653917
5.133662
5.710498
6.024617
6.024617
5.624829
5.145084
4.596805
4.134193
3.860054
3.317485
3.003366
2.946254
2.820606
2.752071
2.786339
2.597868
2.232348
2.072433
1.872539
1.735469
1.712624
1.672645
1.644089
1.609822
1.581266
1.546998
1.512731
1.546998
1.718335
1.781159
1.775448
1.809715
1.809715
1.838272
1.929652
1.901095
1.849694
1.963919
2.078144
2.089567
2.072433
2.083855
2.175235
2.443664
2.700670
2.649269
2.580734
2.546466
2.432241
2.026743
1.729758
1.798293
1.769737
1.895384
1.552709
1.861117
2.792050
6.184531
10.005356
6.338735
0.958739
-0.457650
0.261967
1.381372
1.404217
1.472752
1.455618
1.421351
1.444196
1.398506
1.455618
1.404217
1.746892
2.055299
2.055299
2.340862
2.672114
3.054768
3.545935
3.945722
4.151327
4.025680
3.660160
3.146147
2.432241
1.724047
1.347104
0.993007
0.673177
0.547530
0.478995
0.467572
0.427593
0.393326
0.376192
0.176298
-0.086419
-0.086419
-0.086419
-0.246334
-0.200644
0.107764
0.244833
0.159165
0.284812
0.370481
0.290523
0.284812
0.147742
-0.114975
-0.137820
-0.154954
-0.189221
0.004961
0.102052
-0.046440
-0.366270
-0.423383
-0.286313
-0.240623
-0.183510
-0.035018
0.553241
1.175767
1.324259
1.312837
1.255724
1.215746
1.181478
1.130077
1.141499
1.095809
1.181478
1.095809
1.187189
1.826849
5.025148
9.371408
7.126887
1.227168
-1.040197
-0.303446
0.861648
1.044408
0.781691
0.433305
0.341925
0.136320
-0.194933
0.107764
0.359058
0.319080
0.256256
0.221988
0.576086
0.718867
0.661755
1.250013
1.609822
1.644089
1.918229
1.923940
1.644089
1.152922
0.450438
-0.057863
-0.229200
-0.223489
-0.200644
-0.183510
-0.154954
-0.137820
-0.109264
-0.292024
-0.691811
-0.846015
-0.817459
-0.823170
-0.777480
-0.863149
-0.851726
-0.668966
-0.640410
-0.589009
-0.714656
-0.880282
-0.851726
-0.846015
-0.811747
-0.811747
-0.720367
-0.497629
-0.314869
-0.160665
-0.143531
-0.223489
-0.200644
-0.109264
-0.046440
0.039229
0.107764
0.313368
0.587508
0.610353
0.775980
1.101521
1.015852
0.718867
0.724578
0.656043
0.267678
0.004961
0.039229
0.084919
0.359058
0.233411
0.079207
0.747423
2.820606
7.675167
7.578076
1.352816
-1.959708
-1.851195
-0.988796
-0.828881
-0.868860
-0.720367
-0.800325
-0.834592
-0.720367
-0.708945
-0.691811
-0.303446
-0.183510
-0.166376
0.022095
0.187721
0.604642
1.004429
1.689779
2.426530
2.626424
2.792050
2.837740
2.312305
1.586977
1.210034
0.918761
0.730290
0.416171
0.090630
0.102052
0.119186
0.084919
0.062074
0.027806
0.016384
-0.023595
-0.057863
-0.114975
-0.314869
-0.383404
-0.457650
-0.520474
-0.491918
-0.526185
-0.503340
-0.526185
-0.697522
-0.743212
-0.783191
-1.045909
-1.160134
-1.382872
-1.691280
-1.754103
-1.794082
-1.748392
-1.674146
-1.599900
-1.702702
-1.794082
-1.736970
-1.622745
-1.645590
-1.976842
-2.119623
-2.285249
-2.559389
-2.559389
-2.593657
-2.616502
-2.507988
-2.633636
-2.290961
-0.960240
3.186126
6.161686
2.163813
-2.645058
-3.878688
-2.873508
-1.788371
-1.885462
-1.874040
-1.839772
-1.639878
-1.622745
-1.776948
-1.588477
-1.559921
-1.657012
-1.571343
-1.411428
-1.217246
-0.897416
-0.360559
0.250545
0.621776
0.878782
1.147211
1.204323
0.884493
0.387615
-0.137820
-0.537608
-0.937395
-1.365739
-1.571343
-1.662723
-1.537076
-1.320049
-1.211535
-1.182979
-1.171556
-1.148711
-1.160134
-1.302915
-1.085887
-1.131577
-1.908307
-2.239559
-2.456587
-2.582234
-2.502277
-2.485143
-2.685037
-3.210472
-3.410365
-3.381809
-3.381809
-3.347542
-3.330408
-3.261873
-3.279007
-3.318985
-3.324697
-3.273295
-2.879219
-2.742149
-3.176204
-3.490323
-3.410365
-3.427499
-3.718773
-3.844420
-4.209940
-4.318454
-4.272764
-4.466946
-4.107138
-2.559389
1.878250
3.306062
-1.559921
-5.609196
-6.471594
-5.472126
-4.901001
-4.929557
-4.786776
-4.826755
-4.763931
-4.735375
-4.729664
-4.752509
-4.586882
-4.347010
-4.221363
-4.152828
-3.855843
-3.615970
-3.084824
-2.393763
-2.388052
-2.519411
-2.519411
-2.622213
-2.970599
-3.536013
-3.987201
-4.129983
-4.175673
-4.215651
-4.375566
-4.352721
-4.175673
-4.204229
-4.192806
-4.147116
-4.244208
-4.484080
-4.564037
-4.512636
-4.529770
-4.466946
-4.524059
-4.701107
-4.769642
-4.918135
-4.969536
-4.980959
-4.906712
-4.866734
-5.066627
-5.038071
-4.901001
-4.746797
-4.581171
-4.381278
-4.158539
-4.255630
-4.695396
-5.038071
-5.403591
-5.580640
-5.477837
-5.432147
-5.483548
-5.523527
-5.580640
-6.054673
-5.529238
-3.741618
0.336213
2.061010
-2.730727
-6.517284
-7.333993
-6.631509
-5.603485
-5.512105
-5.300788
-5.226542
-5.197986
-5.135162
-3.279007
-3.284718
-3.336119
-3.381809
-3.358964
-3.370387
-3.370387
-3.358964
-3.536013
-3.478900
-3.256162
-3.204760
-3.164782
-3.159070
-3.141937
-3.113380
-3.119092
-3.027712
-2.804973
-2.730727
-2.736438
-2.696459
-2.707882
-2.662192
-2.782128
-2.970599
-3.079113
-3.130514
-3.096247
-3.119092
-2.827818
-2.884931
0.290523
4.848099
2.632135
-1.200112
-2.199581
-2.410897
-2.342362
-2.593657
-2.616502
-2.610791
-2.599368
-2.428031
-2.285249
-2.153891
-2.079645
-2.056800
-1.885462
-1.765526
-1.736970
-1.559921
-1.297204
-0.937395
-0.657544
-0.337714
0.044940
0.290523
0.530396
0.730290
0.718867
0.547530
0.113475
-0.389115
-0.634699
-0.914550
-1.068754
-1.205824
-1.360027
-1.342894
-1.314337
-1.331471
-1.394295
-1.325760
-1.320049
-1.468541
-1.571343
-1.599900
-1.617033
-1.617033
-1.588477
-1.571343
-1.702702
-1.868328
-1.902596
-1.902596
-1.885462
-1.885462
-1.885462
-1.879751
-1.885462
-1.851195
-1.816927
-1.782660
-1.754103
-1.736970
-1.702702
-1.685568
-1.651301
-1.651301
-1.537076
-1.200112
-1.182979
-1.337182
-1.291492
-1.245802
-1.182979
-1.068754
-0.874571
-0.680389
-0.646121
-0.663255
-0.646121
-0.731790
-1.045909
-1.177267
-1.234380
-1.262936
-1.120155
-1.240091
-0.983085
-0.977374
1.906807
6.327313
4.436890
0.690311
-0.446228
-0.651832
-0.560453
-0.811747
-0.794614
-0.771769
-0.766057
-0.731790
-0.646121
-0.463361
-0.463361
-0.457650
-0.457650
-0.366270
-0.177799
0.062074
0.313368
0.387615
0.456150
0.730290
1.090098
1.409928
1.586977
1.701202
1.666934
1.666934
1.598399
1.090098
0.753135
0.724578
0.536107
0.221988
0.056362
0.004961
-0.035018
-0.046440
-0.086419
-0.092130
-0.183510
-0.349136
-0.423383
-0.480495
-0.486206
-0.486206
-0.480495
-0.497629
-0.463361
-0.606143
-0.794614
-0.663255
-0.708945
-0.817459
-0.788902
-0.806036
-0.800325
-0.800325
-0.823170
-0.846015
-0.823170
-0.788902
-0.771769
-0.737501
-0.720367
-0.743212
-0.834592
-0.948817
-0.925972
-0.846015
-0.817459
-0.748924
-0.766057
-0.846015
-0.806036
-0.743212
-0.680389
-0.668966
-0.668966
-0.474784
-0.263468
-0.172088
0.050651
0.102052
-0.217778
-0.377693
-0.554741
-0.823170
-0.960240
-1.000219
-0.994507
-1.177267
-0.937395
-0.931684
1.501308
5.858990
4.396911
0.473283
-0.806036
-1.148711
-1.131577
-1.257225
-1.400006
-1.462830
-1.462830
-1.285781
-1.085887
-1.051620
-1.040197
-1.028775
-0.851726
-0.589009
-0.526185
-0.474784
-0.411960
-0.280601
-0.000750
0.216277
0.496128
0.838803
1.050119
1.312837
1.369949
1.215746
0.924472
0.444727
0.033517
-0.343425
-0.549030
-0.663255
-0.731790
-0.668966
-0.606143
-0.543319
-0.503340
-0.463361
-0.457650
-0.457650
-0.429094
-0.429094
-0.423383
-0.383404
-0.360559
-0.314869
-0.303446
-0.292024
-0.337714
-0.360559
-0.354848
-0.486206
-0.611854
-0.617565
-0.543319
-0.537608
-0.554741
-0.606143
-0.549030
-0.628988
-0.880282
-0.851726
-0.800325
-0.800325
-0.800325
-0.800325
-0.817459
-0.885994
-0.920261
-0.908839
-0.920261
-0.971662
-0.937395
-0.846015
-0.691811
-0.480495
-0.252045
-0.200644
-0.189221
-0.269179
-0.520474
-0.731790
-0.983085
-0.937395
-1.023064
-0.965951
-0.977374
-0.965951
-1.108732
0.199143
5.036571
5.527738
1.312837
-0.543319
-0.885994
-0.788902
-0.760346
-0.754635
-0.686100
-0.697522
-0.623276
-0.628988
-0.566164
-0.560453
-0.480495
-0.292024
-0.212066
0.044940
0.364770
0.410460
0.421882
0.621776
0.907338
1.118654
1.518442
1.906807
2.083855
2.312305
2.238059
2.038165
1.729758
1.198612
0.844515
0.518973
0.330502
0.267678
0.216277
0.187721
0.130608
0.102052
0.056362
0.010672
-0.023595
-0.074996
-0.103553
-0.166376
-0.200644
-0.160665
-0.166376
-0.200644
-0.217778
-0.206355
-0.183510
-0.172088
-0.149243
-0.137820
-0.172088
-0.223489
-0.189221
-0.069285
-0.217778
-0.417671
-0.366270
-0.343425
-0.314869
-0.269179
-0.292024
-0.337714
-0.252045
-0.086419
0.079207
0.216277
0.307657
0.496128
0.496128
0.279101
0.084919
-0.069285
-0.212066
-0.166376
-0.120686
-0.109264
-0.012173
-0.103553
-0.309158
-0.023595
4.059947
6.795635
3.026211
0.187721
-0.274890
-0.371981
-0.200644
-0.274890
-0.103553
-0.069285
-0.006461
0.073496
0.062074
0.182010
0.176298
0.153453
0.421882
0.530396
0.553241
0.701733
0.781691
0.833092
1.038697
1.546998
1.981053
2.112412
2.232348
2.426530
2.415108
2.123834
1.712624
1.232879
0.827381
0.564663
0.261967
0.119186
0.079207
0.016384
-0.012173
-0.166376
-0.252045
-0.160665
-0.126398
0.039229
0.273390
0.187721
0.124897
0.244833
0.227700
0.204855
0.142031
0.204855
0.301946
0.290523
0.370481
0.341925
0.244833
0.210566
0.153453
0.113475
0.256256
0.153453
0.159165
0.330502
0.227700
0.279101
0.182010
0.353347
0.541818
0.416171
0.696022
0.667466
0.359058
0.096341
-0.035018
-0.183510
-0.383404
-0.474784
-0.383404
-0.166376
-0.154954
-0.166376
0.153453
4.425467
7.292514
3.437421
0.707445
0.147742
-0.166376
-0.160665
-0.400538
-0.332003
-0.343425
-0.292024
-0.206355
0.016384
0.107764
0.073496
0.199143
0.273390
0.461861
0.598931
0.656043
0.804536
1.044408
1.398506
1.644089
1.866828
2.083855
2.238059
2.403685
2.312305
2.169524
1.941074
1.461329
0.987296
0.701733
0.633198
0.541818
0.496128
0.496128
0.461861
0.456150
0.421882
0.393326
0.359058
0.324791
0.301946
0.239122
0.187721
0.124897
0.062074
-0.035018
-0.183510
-0.263468
-0.257756
-0.252045
-0.263468
-0.246334
-0.286313
-0.240623
-0.240623
-0.411960
-0.503340
-0.628988
-0.674677
-0.640410
-0.674677
-0.754635
-0.577586
-0.423383
-0.560453
-0.520474
-0.457650
-0.429094
-0.371981
-0.194933
0.016384
0.204855
0.467572
0.484706
0.410460
0.233411
0.022095
-0.069285
-0.109264
-0.194933
-0.177799
-0.269179
-0.217778
-0.234911
0.501840
5.173641
7.383894
3.494534
0.867359
0.376192
0.164876
0.124897
0.004961
-0.046440
-0.172088
-0.217778
-0.126398
-0.023595
0.119186
0.244833
0.267678
0.341925
0.593220
0.827381
0.907338
1.130077
1.210034
1.352816
1.632667
1.906807
2.215214
2.318017
2.512199
2.517910
2.215214
1.849694
1.421351
0.987296
0.633198
0.518973
0.439016
0.273390
0.159165
0.102052
0.079207
0.056362
0.022095
0.010672
-0.035018
-0.086419
-0.092130
-0.069285
-0.069285
-0.040729
-0.120686
-0.212066
-0.069285
0.090630
0.102052
-0.017884
-0.160665
-0.274890
-0.297735
-0.229200
-0.160665
-0.057863
-0.000750
0.050651
0.204855
0.273390
0.244833
0.267678
0.124897
-0.040729
-0.154954
-0.229200
0.004961
0.090630
-0.000750
-0.017884
-0.097841
-0.092130
-0.023595
0.102052
0.170587
0.084919
-0.006461
0.050651
0.193432
0.199143
0.370481
0.536107
0.524685
0.450438
0.233411
-0.074996
-0.223489
-0.297735
-0.560453
-0.623276
-0.657544
-0.486206
-0.497629
2.592156
6.624298
4.282686
0.741712
-0.223489
-0.463361
-0.526185
-0.783191
-0.651832
-0.457650
-0.269179
-0.286313
-0.320580
-0.252045
-0.234911
-0.177799
-0.149243
-0.092130
-0.046440
0.290523
0.490417
0.598931
1.050119
1.352816
1.552709
1.729758
1.935363
2.129545
2.186658
2.100989
1.889673
1.575554
1.175767
0.884493
0.621776
0.410460
0.364770
0.370481
0.370481
0.370481
0.376192
0.341925
0.347636
0.433305
0.610353
0.770268
0.707445
0.621776
0.598931
0.593220
0.621776
0.627487
0.656043
0.650332
0.587508
0.524685
0.450438
0.410460
0.387615
0.439016
0.518973
0.513262
0.507551
0.484706
0.484706
0.456150
0.296235
0.193432
0.084919
0.056362
0.210566
0.096341
-0.126398
-0.149243
-0.160665
-0.252045
-0.303446
-0.269179
-0.286313
-0.109264
0.050651
0.136320
0.496128
0.627487
0.598931
0.301946
-0.200644
-0.423383
-0.366270
-0.406249
-0.554741
-0.560453
-0.606143
-0.514763
-0.366270
3.214682
6.789924
3.877187
0.616065
-0.012173
-0.337714
-0.417671
-0.623276
-0.760346
-0.754635
-0.720367
-0.686100
-0.657544
-0.623276
-0.657544
-0.606143
-0.406249
-0.360559
-0.292024
-0.172088
-0.092130
0.176298
0.484706
0.764557
1.084387
1.238591
1.221457
1.284281
1.404217
1.238591
0.810247
0.324791
-0.292024
-0.549030
-0.651832
-0.868860
-0.874571
-0.857437
-0.840304
-0.811747
-0.800325
-0.760346
-0.743212
-0.703234
-0.680389
-0.634699
-0.628988
-0.737501
-0.686100
-0.623276
-0.634699
-0.628988
-0.634699
-0.754635
-0.971662
-1.023064
-1.057331
-1.103021
-1.045909
-0.977374
-0.943106
-0.846015
-0.948817
-1.228669
-1.257225
-1.165845
-1.160134
-1.331471
-1.382872
-1.331471
-1.348605
-1.388584
-1.400006
-1.291492
-1.194401
-1.057331
-0.903127
-0.783191
-0.737501
-0.748924
-0.726079
-0.720367
-0.988796
-1.262936
-1.371450
-1.537076
-1.388584
-1.588477
-1.674146
-1.634167
1.164344
5.607695
3.665871
-0.120686
-1.028775
-1.240091
-1.080176
-1.137289
-1.068754
-1.222957
-1.285781
-1.200112
-1.171556
-1.034486
-0.994507
-0.983085
-0.880282
-0.674677
-0.748924
-0.680389
-0.451939
-0.246334
0.067785
0.244833
0.536107
0.627487
0.804536
1.272858
1.427062
1.484174
1.449907
1.118654
0.604642
0.261967
-0.057863
-0.354848
-0.371981
-0.337714
-0.429094
-0.394826
-0.286313
-0.252045
-0.217778
-0.172088
-0.149243
-0.092130
0.004961
-0.109264
-0.132109
-0.057863
-0.029306
0.096341
0.079207
0.022095
-0.017884
-0.080708
-0.109264
-0.120686
-0.109264
-0.120686
-0.109264
-0.120686
-0.177799
-0.149243
-0.114975
-0.069285
-0.046440
0.039229
0.307657
0.507551
0.536107
0.553241
0.501840
0.524685
0.513262
0.330502
0.016384
-0.274890
-0.132109
-0.166376
-0.126398
-0.132109
-0.120686
-0.360559
1.472752
6.687121
6.213088
1.804004
0.507551
0.193432
0.359058
0.313368
0.416171
0.593220
0.473283
0.661755
0.667466
0.576086
0.684600
0.787402
0.804536
1.055831
1.095809
1.072964
1.084387
1.101521
1.421351
1.758314
2.152390
2.437953
2.557889
2.792050
3.009078
3.077613
2.763494
2.266615
1.878250
1.444196
1.141499
1.078676
1.084387
1.078676
1.084387
1.084387
1.084387
1.204323
1.238591
1.329971
1.512731
1.518442
1.489886
1.449907
1.409928
1.375661
1.341393
1.347104
1.335682
1.375661
1.421351
1.358527
1.318548
1.244302
1.027274
0.935894
0.913049
0.895916
0.844515
-1.365739
-1.337182
-1.302915
-1.268647
-1.234380
-1.194401
-1.154422
-1.120155
-1.080176
-1.051620
-1.011641
-0.988796
-0.931684
-0.817459
-0.657544
-0.560453
-0.571875
-0.571875
-0.571875
-0.571875
-0.571875
-0.606143
-0.737501
-0.903127
-0.925972
-0.943106
-0.971662
-0.954529
-0.937395
-0.920261
-0.903127
-0.885994
-0.891705
-0.914550
-0.914550
-0.908839
-0.920261
-0.903127
-0.937395
-1.034486
-1.000219
-0.971662
-0.948817
-0.931684
-0.863149
-0.606143
-0.332003
-0.074996
0.182010
0.142031
-0.057863
-0.189221
-0.611854
-0.994507
-0.925972
-1.097310
-1.063042
-1.091599
-1.085887
-0.977374
-1.360027
-0.817459
0.216277
4.328376
5.287866
-0.606143
-2.513699
-1.617033
-1.285781
-0.954529
-1.045909
-0.920261
-0.965951
-0.897416
-0.885994
-0.846015
-0.794614
-0.777480
-0.720367
-0.674677
-0.611854
-0.560453
-0.480495
-0.394826
-0.349136
-0.343425
-0.343425
-0.337714
-0.349136
-0.366270
-0.377693
-0.360559
-0.423383
-0.549030
-0.571875
-0.606143
-0.634699
-0.600431
-0.583298
-0.560453
-0.537608
-0.520474
-0.503340
-0.469073
-0.440516
-0.417671
-0.394826
-0.366270
-0.337714
-0.286313
-0.257756
-0.194933
-0.023595
0.193432
0.587508
0.770268
0.507551
0.336213
0.102052
-0.297735
-0.514763
-0.554741
-0.651832
-0.566164
-0.737501
-0.589009
-0.720367
-0.885994
-0.183510
1.467041
5.887547
4.476868
-1.377161
-1.879751
-1.200112
-0.897416
-0.663255
-0.663255
-0.497629
-0.537608
-0.446228
-0.457650
-0.400538
-0.383404
-0.349136
-0.303446
-0.280601
-0.212066
-0.149243
-0.069285
-0.000750
0.113475
0.204855
0.199143
0.193432
0.170587
0.176298
0.142031
0.004961
-0.069285
-0.114975
-0.160665
-0.172088
-0.172088
-0.172088
-0.172088
-0.172088
-0.143531
-0.143531
-0.143531
-0.143531
-0.143531
-0.132109
-0.109264
-0.114975
-0.114975
-0.114975
-0.120686
-0.057863
-0.006461
0.119186
0.359058
0.696022
1.032986
1.061542
0.873071
0.518973
0.204855
-0.092130
-0.200644
-0.234911
-0.337714
-0.314869
-0.463361
-0.246334
-0.686100
-0.411960
0.444727
3.483111
6.784213
1.992475
-2.039666
-1.205824
-0.857437
-0.394826
-0.417671
-0.337714
-0.303446
-0.292024
-0.217778
-0.217778
-0.137820
-0.103553
-0.080708
-0.114975
0.010672
0.073496
0.113475
0.233411
0.307657
0.387615
0.399037
0.370481
0.364770
0.341925
0.336213
0.261967
0.176298
0.119186
0.084919
0.056362
0.022095
-0.012173
-0.023595
-0.000750
-0.000750
-0.000750
0.004961
-0.006461
0.044940
0.096341
0.067785
0.050651
0.033517
0.004961
0.004961
0.027806
0.039229
0.056362
0.073496
0.084919
0.153453
0.427593
0.684600
1.010141
1.301414
1.118654
0.964451
0.770268
0.416171
0.159165
-0.006461
-0.246334
-0.257756
-0.371981
-0.343425
-0.360559
-0.714656
-0.103553
0.975873
5.082261
5.756188
-0.137820
-1.948286
-0.994507
-0.651832
-0.417671
-0.469073
-0.314869
-0.326291
-0.240623
-0.246334
-0.223489
-0.189221
-0.183510
-0.149243
-0.120686
-0.086419
0.010672
0.124897
0.239122
0.341925
0.461861
0.604642
0.576086
0.490417
0.439016
0.364770
0.307657
0.221988
0.056362
-0.035018
-0.029306
-0.046440
-0.069285
-0.017884
0.067785
0.039229
0.004961
-0.029306
-0.052151
-0.035018
-0.017884
-0.006461
0.016384
0.027806
0.027806
0.027806
0.027806
0.027806
0.027806
0.027806
-0.000750
0.004961
-0.012173
-0.023595
-0.046440
0.050651
0.359058
0.593220
0.930183
1.072964
0.947317
0.838803
0.524685
0.182010
-0.074996
-0.132109
-0.240623
-0.194933
-0.314869
-0.229200
-0.252045
-0.469073
0.176298
1.478463
5.773322
5.304999
-0.594720
-1.611322
-0.714656
-0.326291
-0.200644
-0.274890
-0.126398
-0.183510
-0.074996
-0.092130
-0.035018
-0.017884
0.016384
0.050651
0.102052
0.250545
0.290523
0.330502
0.461861
0.604642
0.690311
0.690311
0.673177
0.650332
0.638910
0.587508
0.473283
0.307657
0.164876
0.124897
0.102052
0.073496
0.050651
0.027806
0.056362
0.073496
0.090630
0.119186
0.136320
0.159165
0.170587
0.170587
0.170587
0.170587
0.164876
0.142031
0.113475
0.084919
0.067785
0.033517
0.039229
0.079207
0.090630
0.073496
0.136320
0.376192
0.587508
0.895916
1.170056
1.072964
0.935894
0.770268
0.416171
0.062074
0.033517
-0.074996
-0.057863
-0.143531
-0.200644
-0.160665
-0.371981
0.204855
1.204323
5.276443
5.938948
0.073496
-1.668435
-0.743212
-0.394826
-0.126398
-0.217778
-0.092130
-0.137820
-0.069285
-0.052151
0.010672
0.079207
0.119186
0.176298
0.204855
0.261967
0.330502
0.416171
0.553241
0.696022
0.758846
0.827381
0.821670
0.833092
0.873071
0.753135
0.604642
0.501840
0.404748
0.330502
0.279101
0.290523
0.279101
0.256256
0.256256
0.273390
0.301946
0.364770
0.364770
0.279101
0.233411
0.204855
0.176298
0.159165
0.124897
0.102052
0.073496
0.027806
-0.006461
-0.046440
-0.080708
-0.063574
-0.006461
0.039229
0.096341
0.279101
0.564663
0.878782
1.021563
0.890204
0.747423
0.501840
0.113475
-0.097841
-0.143531
-0.246334
-0.160665
-0.326291
-0.189221
-0.343425
-0.377693
0.279101
2.140968
6.435826
4.408333
-1.103021
-1.314337
-0.766057
-0.417671
-0.240623
-0.297735
-0.177799
-0.223489
-0.126398
-0.149243
-0.063574
-0.035018
0.022095
0.084919
0.147742
0.216277
0.244833
0.370481
0.467572
0.633198
0.730290
0.678888
0.678888
0.644621
0.633198
0.587508
0.461861
0.313368
0.199143
0.170587
0.142031
0.107764
0.073496
0.062074
0.096341
0.136320
0.176298
0.216277
0.244833
0.279101
0.284812
0.284812
0.313368
0.313368
0.313368
0.267678
0.261967
0.216277
0.261967
0.444727
0.410460
0.364770
0.313368
0.296235
0.301946
0.399037
0.718867
0.970162
1.272858
1.307126
1.141499
0.998718
0.667466
0.336213
0.233411
0.113475
0.056362
0.193432
0.050651
0.153453
-0.183510
0.102052
0.775980
3.700139
6.915571
2.557889
-1.411428
-0.846015
-0.320580
0.056362
-0.017884
0.090630
0.056362
0.044940
0.073496
0.039229
0.062074
0.142031
0.250545
0.216277
0.233411
0.221988
0.227700
0.273390
0.427593
0.564663
0.530396
0.496128
0.467572
0.416171
0.353347
0.279101
0.147742
0.010672
-0.074996
-0.177799
-0.200644
-0.223489
-0.252045
-0.229200
-0.229200
-0.229200
-0.229200
-0.229200
-0.246334
-0.263468
-0.280601
-0.292024
-0.280601
-0.314869
-0.349136
-0.354848
-0.417671
-0.411960
-0.417671
-0.292024
-0.035018
0.216277
0.616065
0.667466
0.490417
0.256256
-0.132109
-0.543319
-0.720367
-0.697522
-0.846015
-0.874571
-0.983085
-0.823170
-1.154422
-0.903127
-0.177799
2.409396
6.047462
2.209503
-2.279538
-1.822638
-1.331471
-0.903127
-0.880282
-0.823170
-0.788902
-0.800325
-0.731790
-0.748924
-0.674677
-0.674677
-0.628988
-0.600431
-0.571875
-0.531896
-0.469073
-0.354848
-0.257756
-0.172088
-0.035018
0.027806
0.027806
0.016384
-0.097841
-0.154954
-0.252045
-0.406249
-0.451939
-0.520474
-0.531896
-0.509051
-0.520474
-0.491918
-0.486206
-0.491918
-0.509051
-0.526185
-0.537608
-0.560453
-0.571875
-0.571875
-0.566164
-0.577586
-0.560453
-0.491918
-0.269179
-0.006461
0.324791
0.633198
0.627487
0.461861
0.159165
-0.074996
-0.463361
-0.686100
-0.640410
-0.800325
-0.697522
-0.868860
-0.691811
-0.948817
-0.777480
-0.029306
2.203792
6.224510
2.929120
-2.033955
-1.679857
-1.108732
-0.691811
-0.663255
-0.634699
-0.571875
-0.589009
-0.503340
-0.520474
-0.429094
-0.394826
-0.326291
-0.274890
-0.234911
-0.177799
-0.143531
-0.092130
0.004961
0.079207
0.153453
0.187721
0.142031
0.113475
0.067785
0.039229
-0.040729
-0.154954
-0.177799
-0.200644
-0.246334
-0.246334
-0.217778
-0.200644
-0.183510
-0.154954
-0.137820
-0.114975
-0.069285
-0.035018
0.004961
0.044940
0.044940
0.004961
-0.023595
-0.046440
-0.092130
-0.103553
-0.035018
0.170587
0.444727
0.741712
0.998718
0.970162
0.821670
0.593220
0.221988
-0.177799
-0.286313
-0.371981
-0.451939
-0.463361
-0.537608
-0.394826
-0.657544
-0.189221
0.558952
4.094215
6.475805
1.112943
-2.016821
-1.045909
-0.691811
-0.349136
-0.406249
-0.314869
-0.326291
-0.292024
-0.252045
-0.240623
-0.183510
-0.177799
-0.126398
-0.097841
-0.029306
-0.000750
0.119186
0.319080
0.410460
0.427593
0.427593
0.427593
0.427593
0.427593
0.410460
0.336213
0.267678
0.221988
0.187721
0.164876
0.124897
0.102052
0.079207
0.090630
0.216277
0.267678
0.244833
0.261967
0.250545
0.267678
0.313368
0.273390
0.216277
0.176298
0.113475
0.050651
-0.097841
-0.063574
0.182010
0.073496
-0.080708
0.010672
0.062074
0.279101
0.581797
0.787402
1.050119
0.975873
0.690311
0.381903
0.079207
-0.200644
-0.406249
-0.486206
-0.520474
-0.577586
-0.657544
-0.497629
-0.800325
-0.360559
0.461861
3.888610
6.235933
0.878782
-2.245271
-1.245802
-0.914550
-0.543319
-0.606143
-0.503340
-0.503340
-0.469073
-0.423383
-0.411960
-0.360559
-0.349136
-0.297735
-0.280601
-0.200644
-0.120686
-0.052151
0.027806
0.182010
0.319080
0.324791
0.290523
0.267678
0.239122
0.216277
0.187721
0.004961
-0.154954
-0.189221
-0.280601
-0.314869
-0.343425
-0.343425
-0.303446
-0.286313
-0.257756
-0.234911
-0.206355
-0.200644
-0.200644
-0.177799
-0.166376
-0.183510
-0.200644
-0.200644
-0.212066
-0.229200
-0.229200
-0.246334
-0.263468
-0.246334
-0.280601
-0.354848
-0.411960
-0.491918
-0.417671
-0.206355
-0.012173
0.261967
0.553241
0.593220
0.376192
0.096341
-0.109264
-0.429094
-0.634699
-0.743212
-0.760346
-0.703234
-0.811747
-0.640410
-0.891705
-0.491918
0.136320
3.134725
6.338735
1.746892
-2.125335
-1.354316
-0.931684
-0.549030
-0.589009
-0.491918
-0.474784
-0.429094
-0.280601
-0.263468
-0.206355
-0.206355
-0.166376
-0.149243
-0.114975
-0.057863
-0.017884
0.039229
0.159165
0.250545
0.341925
0.370481
0.284812
0.233411
0.159165
0.044940
-0.063574
-0.217778
-0.337714
-0.349136
-0.371981
-0.423383
-0.429094
-0.429094
-0.429094
-0.429094
-0.423383
-0.406249
-0.400538
-0.400538
-0.400538
-0.400538
-0.411960
-0.434805
-0.446228
-0.463361
-0.480495
-0.491918
-0.520474
-0.520474
-0.571875
-0.691811
-0.640410
-0.628988
-0.577586
-0.549030
-0.389115
-0.149243
0.090630
0.478995
0.501840
0.518973
0.004961
0.067785
-0.708945
-0.457650
-0.743212
-2.005398
-0.114975
-0.114975
-0.114975
-0.114975
-0.114975
-0.177799
-0.206355
-0.194933
-0.200644
-0.200644
-0.200644
-0.172088
-0.149243
-0.137820
-0.109264
-0.092130
-0.069285
-0.057863
-0.057863
-0.057863
-0.057863
-0.052151
-0.023595
0.050651
0.067785
0.022095
-0.012173
-0.057863
-0.097841
-0.143531
-0.109264
-0.126398
-0.097841
-0.092130
-0.092130
-0.057863
-0.040729
0.461861
1.792582
4.099926
3.220394
-0.480495
-1.457118
-1.023064
-0.554741
-0.309158
-0.406249
-0.309158
-0.343425
-0.303446
-0.303446
-0.269179
-0.252045
-0.234911
-0.206355
-0.194933
-0.172088
-0.217778
-0.217778
-0.172088
-0.149243
-0.109264
-0.080708
0.010672
0.164876
0.267678
0.439016
0.530396
0.553241
0.621776
0.581797
0.524685
0.478995
0.410460
0.347636
0.250545
0.124897
0.073496
0.050651
0.022095
-0.000750
-0.029306
-0.006461
-0.000750
-0.000750
0.027806
0.027806
0.033517
0.062074
0.079207
0.096341
0.124897
0.142031
0.164876
0.170587
0.170587
0.193432
0.199143
0.193432
0.164876
0.130608
0.113475
0.084919
0.056362
0.033517
0.027806
0.027806
0.027806
0.027806
0.033517
0.056362
0.056362
0.056362
0.056362
0.050651
0.079207
0.090630
0.153453
0.261967
0.256256
0.256256
0.239122
0.216277
0.233411
0.187721
0.164876
0.113475
0.079207
0.062074
0.039229
0.084919
0.022095
0.353347
1.204323
3.500245
4.259841
0.753135
-1.325760
-0.994507
-0.577586
-0.114975
-0.080708
-0.012173
-0.035018
-0.012173
0.010672
-0.012173
0.039229
0.044940
0.084919
0.067785
0.056362
0.056362
0.050651
0.056362
0.050651
0.096341
0.142031
0.176298
0.273390
0.439016
0.616065
0.696022
0.810247
0.844515
0.793113
0.770268
0.730290
0.656043
0.553241
0.473283
0.410460
0.341925
0.284812
0.239122
0.216277
0.182010
0.147742
0.119186
0.136320
0.199143
0.239122
0.279101
0.313368
0.353347
0.393326
0.399037
0.416171
0.433305
0.410460
0.399037
0.399037
0.381903
0.364770
0.370481
0.427593
0.433305
0.393326
0.376192
0.347636
0.324791
0.296235
0.261967
0.221988
0.187721
0.142031
0.113475
0.113475
0.113475
0.113475
0.107764
0.130608
0.142031
0.142031
0.142031
0.142031
0.204855
0.313368
0.347636
0.347636
0.473283
0.370481
0.147742
0.119186
0.107764
0.016384
0.130608
0.216277
0.159165
0.096341
0.102052
0.570375
1.621244
4.122771
3.888610
0.004961
-1.451407
-0.960240
-0.383404
-0.012173
0.119186
0.153453
-0.017884
0.050651
0.033517
0.062074
0.056362
0.016384
0.039229
0.004961
0.004961
-0.012173
0.044940
0.130608
0.039229
0.056362
0.221988
0.290523
0.399037
0.507551
0.461861
0.570375
0.770268
0.753135
0.724578
0.701733
0.667466
0.530396
0.387615
0.347636
0.273390
0.210566
0.107764
0.142031
0.221988
0.153453
0.096341
0.044940
0.010672
-0.012173
-0.040729
-0.063574
-0.086419
-0.063574
-0.046440
-0.040729
-0.000750
-0.017884
0.073496
0.193432
0.067785
0.016384
-0.000750
-0.035018
-0.052151
-0.086419
-0.086419
-0.086419
-0.086419
-0.086419
-0.086419
-0.074996
-0.057863
-0.057863
-0.057863
-0.057863
-0.063574
-0.035018
-0.000750
0.027806
0.062074
0.090630
0.164876
0.176298
0.119186
0.079207
0.033517
-0.006461
-0.063574
-0.143531
-0.194933
-0.223489
-0.154954
-0.160665
-0.097841
-0.086419
-0.029306
0.524685
2.066722
4.225573
2.683536
-0.788902
-1.445696
-1.103021
-0.623276
-0.371981
-0.394826
-0.269179
-0.263468
-0.172088
-0.137820
-0.160665
-0.172088
-0.189221
-0.200644
-0.206355
-0.234911
-0.223489
-0.280601
-0.303446
-0.240623
-0.206355
-0.154954
-0.120686
-0.052151
0.010672
0.147742
0.347636
0.416171
0.450438
0.433305
0.359058
0.193432
0.056362
0.062074
0.044940
-0.074996
-0.166376
-0.172088
-0.183510
-0.200644
-0.206355
-0.212066
-0.194933
-0.177799
-0.160665
-0.143531
-0.132109
-0.114975
-0.114975
-0.114975
-0.114975
-0.114975
-0.137820
-0.143531
-0.143531
-0.172088
-0.172088
-0.177799
-0.200644
-0.194933
-0.217778
-0.229200
-0.229200
-0.246334
-0.274890
-0.280601
-0.257756
-0.240623
-0.229200
-0.206355
-0.194933
-0.223489
-0.229200
-0.229200
-0.229200
-0.229200
-0.223489
-0.172088
-0.114975
-0.052151
-0.052151
-0.086419
-0.137820
-0.154954
-0.246334
-0.309158
-0.326291
-0.303446
-0.286313
-0.292024
-0.257756
-0.263468
0.062074
1.158633
3.757251
3.780096
-0.052151
-1.742681
-1.400006
-0.965951
-0.594720
-0.589009
-0.514763
-0.526185
-0.480495
-0.457650
-0.474784
-0.503340
-0.509051
-0.486206
-0.474784
-0.457650
-0.434805
-0.429094
-0.411960
-0.383404
-0.354848
-0.326291
-0.303446
-0.223489
-0.120686
-0.023595
0.102052
0.210566
0.290523
0.279101
0.210566
0.147742
0.079207
0.016384
-0.057863
-0.114975
-0.172088
-0.229200
-0.286313
-0.314869
-0.314869
-0.314869
-0.314869
-0.343425
-0.349136
-0.343425
-0.332003
-0.309158
-0.314869
-0.297735
-0.263468
-0.240623
-0.212066
-0.189221
-0.160665
-0.143531
-0.143531
-0.143531
-0.143531
-0.143531
-0.166376
-0.172088
-0.177799
-0.229200
-0.257756
-0.257756
-0.257756
-0.257756
-0.257756
-0.257756
-0.257756
-0.257756
-0.257756
-0.257756
-0.257756
-0.274890
-0.360559
-0.366270
-0.326291
-0.309158
-0.274890
-0.263468
-0.280601
-0.303446
-0.314869
-0.343425
-0.332003
-0.309158
-0.469073
-0.571875
-0.560453
-0.531896
-0.526185
-0.486206
-0.463361
-0.280601
0.147742
1.701202
3.848631
1.866828
-1.514231
-1.736970
-1.348605
-0.800325
-0.520474
-0.720367
-0.600431
-0.577586
-0.554741
-0.543319
-0.526185
-0.509051
-0.503340
-0.474784
-0.469073
-0.446228
-0.429094
-0.423383
-0.389115
-0.349136
-0.303446
-0.280601
-0.177799
0.010672
0.090630
0.124897
0.187721
0.176298
0.124897
0.096341
0.039229
0.010672
-0.046440
-0.160665
-0.177799
-0.172088
-0.269179
-0.360559
-0.411960
-0.423383
-0.400538
-0.371981
-0.360559
-0.332003
-0.314869
-0.337714
-0.343425
-0.343425
-0.337714
-0.309158
-0.292024
-0.269179
-0.252045
-0.223489
-0.274890
-0.320580
-0.314869
-0.314869
-0.314869
-0.332003
-0.354848
-0.406249
-0.417671
-0.394826
-0.383404
-0.366270
-0.349136
-0.343425
-0.371981
-0.394826
-0.411960
-0.406249
-0.371981
-0.349136
-0.320580
-0.292024
-0.297735
-0.314869
-0.314869
-0.326291
-0.360559
-0.320580
-0.406249
-0.549030
-0.531896
-0.509051
-0.491918
-0.469073
-0.457650
-0.503340
-0.229200
0.633198
2.917698
3.688716
0.496128
-1.674146
-1.605611
-1.080176
-0.583298
-0.600431
-0.503340
-0.474784
-0.440516
-0.389115
-0.366270
-0.314869
-0.314869
-0.320580
-0.354848
-0.326291
-0.309158
-0.292024
-0.263468
-0.252045
-0.206355
-0.166376
-0.080708
0.044940
0.153453
0.296235
0.410460
0.501840
0.524685
0.473283
0.421882
0.381903
0.267678
0.130608
0.067785
0.016384
-0.046440
-0.097841
-0.143531
-0.206355
-0.229200
-0.229200
-0.223489
-0.240623
-0.309158
-0.286313
-0.240623
-0.212066
-0.166376
-0.143531
-0.143531
-0.132109
-0.114975
-0.114975
-0.092130
-0.086419
-0.086419
-0.086419
-0.086419
-0.092130
-0.137820
-0.183510
-0.183510
-0.154954
-0.143531
-0.114975
-0.097841
-0.074996
-0.057863
-0.057863
-0.046440
-0.023595
-0.029306
-0.052151
-0.057863
-0.092130
-0.074996
-0.069285
0.027806
0.233411
0.261967
0.244833
0.273390
0.170587
-0.000750
-0.092130
-0.109264
-0.166376
-0.149243
-0.137820
-0.143531
-0.092130
-0.126398
0.216277
1.032986
3.471689
4.499713
1.027274
-1.337182
-1.154422
-0.623276
-0.160665
-0.223489
-0.189221
-0.206355
-0.200644
-0.194933
-0.200644
-0.160665
-0.183510
-0.149243
-0.143531
-0.137820
-0.172088
-0.217778
-0.177799
-0.126398
-0.080708
-0.023595
0.022095
0.096341
0.227700
0.307657
0.330502
0.416171
0.461861
0.421882
0.381903
0.347636
0.301946
0.170587
0.062074
0.044940
0.022095
0.004961
-0.017884
-0.040729
-0.063574
-0.097841
-0.114975
-0.143531
-0.172088
-0.149243
-0.114975
-0.086419
-0.052151
-0.023595
0.004961
0.027806
0.027806
0.039229
0.062074
0.056362
0.039229
0.022095
0.004961
-0.012173
-0.023595
-0.040729
-0.057863
-0.057863
-0.069285
-0.092130
-0.086419
-0.086419
-0.086419
-0.086419
-0.086419
-0.086419
-0.092130
-0.114975
-0.114975
-0.114975
-0.114975
-0.114975
-0.097841
-0.069285
-0.052151
-0.000750
0.044940
0.102052
0.079207
-0.052151
-0.086419
-0.200644
-0.309158
-0.320580
-0.269179
-0.280601
-0.240623
-0.183510
-0.080708
0.381903
1.592688
4.014257
3.220394
-0.566164
-1.599900
-1.023064
-0.497629
-0.200644
-0.223489
-0.206355
-0.229200
-0.172088
-0.172088
-0.143531
-0.120686
-0.114975
-0.194933
-0.246334
-0.212066
-0.206355
-0.183510
-0.177799
-0.154954
-0.126398
-0.086419
-0.057863
-0.035018
0.039229
0.119186
0.267678
0.387615
0.427593
0.410460
0.319080
0.244833
0.142031
0.067785
0.004961
-0.057863
-0.114975
-0.166376
-0.172088
-0.172088
-0.172088
-0.172088
-0.172088
-0.154954
-0.137820
-0.120686
-0.103553
-0.092130
-0.074996
-0.057863
-0.057863
-0.046440
-0.023595
-0.029306
-0.046440
-0.097841
-0.114975
-0.114975
-0.160665
-0.177799
-0.143531
-0.132109
-0.103553
-0.086419
-0.109264
-0.114975
-0.120686
-0.109264
-0.143531
-0.206355
-0.177799
-0.166376
-0.137820
-0.120686
-0.080708
0.067785
0.119186
0.113475
0.113475
0.113475
0.113475
0.096341
0.016384
-0.040729
-0.063574
-0.126398
-0.126398
-0.212066
-0.160665
-0.206355
-0.137820
0.478995
2.089567
4.162750
2.466509
-0.846015
-1.491386
-1.103021
-0.531896
-0.303446
-0.280601
-0.234911
-0.269179
-0.212066
-0.240623
-0.212066
-0.189221
-0.154954
-0.132109
-0.109264
-0.080708
-0.063574
-0.035018
-0.023595
0.004961
0.016384
0.090630
0.147742
0.244833
0.381903
0.456150
0.576086
0.621776
0.587508
0.547530
0.490417
0.456150
0.393326
0.267678
0.187721
0.159165
0.119186
0.079207
0.044940
0.010672
-0.000750
-0.006461
-0.029306
-0.029306
0.010672
0.067785
0.107764
0.170587
0.210566
0.199143
0.199143
0.176298
0.170587
0.170587
0.142031
0.113475
0.084919
0.062074
0.033517
0.039229
0.096341
0.130608
0.119186
0.107764
0.113475
0.113475
0.119186
0.102052
0.062074
0.033517
0.004961
-0.029306
-0.052151
-0.023595
0.010672
0.033517
0.073496
0.090630
0.176298
0.221988
0.147742
0.204855
0.279101
0.227700
0.170587
0.113475
0.022095
-0.006461
-0.554741
-0.474784
-0.343425
-0.577586
-0.617565
-0.549030
-0.554741
-0.497629
-0.451939
-0.332003
-0.223489
-0.263468
-0.246334
0.016384
0.261967
0.387615
0.484706
0.644621
0.815958
0.998718
1.192901
1.238591
1.341393
1.449907
1.398506
1.301414
1.158633
0.981584
0.713156
0.456150
0.279101
0.170587
0.136320
-0.057863
-0.194933
-0.086419
-0.029306
-0.126398
-0.177799
-0.177799
-0.092130
0.142031
0.204855
0.199143
0.187721
0.233411
0.182010
-0.046440
-0.132109
-0.212066
-0.137820
-0.012173
0.033517
0.170587
0.176298
0.113475
0.027806
0.079207
0.239122
0.221988
0.233411
0.261967
0.256256
0.244833
0.227700
0.216277
0.204855
0.182010
0.261967
0.341925
0.296235
0.261967
0.239122
0.199143
0.142031
0.050651
-0.040729
-0.160665
-0.440516
-0.640410
-0.634699
-0.668966
-0.668966
-0.771769
-0.292024
1.347104
2.386551
2.038165
0.724578
-0.726079
-0.863149
-0.628988
-0.680389
-0.640410
-0.691811
-0.680389
-0.691811
-0.611854
-0.549030
-0.589009
-0.531896
-0.537608
-0.463361
-0.274890
-0.229200
-0.177799
0.010672
0.102052
0.221988
0.467572
0.541818
0.650332
0.907338
1.004429
0.833092
0.690311
0.530396
0.164876
-0.103553
-0.200644
-0.309158
-0.474784
-0.503340
-0.429094
-0.514763
-0.674677
-0.663255
-0.646121
-0.697522
-0.594720
-0.366270
-0.297735
-0.280601
-0.229200
-0.200644
-0.166376
-0.177799
-0.154954
-0.143531
-0.143531
-0.143531
-0.143531
-0.143531
-0.137820
-0.166376
-0.240623
-0.217778
-0.217778
-0.189221
-0.217778
-0.303446
-0.143531
-0.109264
-0.194933
-0.160665
-0.172088
-0.246334
-0.309158
-0.252045
-0.200644
-0.337714
-0.349136
-0.263468
-0.320580
-0.314869
-0.366270
-0.354848
-0.446228
-0.486206
-0.497629
-0.846015
-0.743212
-0.600431
-0.594720
-0.611854
-0.925972
-0.063574
1.758314
2.637846
1.946785
0.267678
-0.737501
-0.720367
-0.634699
-0.606143
-0.566164
-0.549030
-0.526185
-0.486206
-0.549030
-0.611854
-0.571875
-0.549030
-0.509051
-0.480495
-0.451939
-0.440516
-0.349136
-0.160665
-0.006461
0.142031
0.467572
0.644621
0.650332
0.964451
0.953028
0.850226
0.730290
0.336213
0.130608
-0.137820
-0.223489
-0.332003
-0.520474
-0.406249
-0.526185
-0.623276
-0.589009
-0.611854
-0.594720
-0.600431
-0.566164
-0.526185
-0.497629
-0.446228
-0.423383
-0.389115
-0.417671
-0.549030
-0.583298
-0.589009
-0.611854
-0.628988
-0.623276
-0.600431
-0.589009
-0.566164
-0.554741
-0.543319
-0.520474
-0.469073
-0.434805
-0.400538
-0.354848
-0.457650
-0.554741
-0.537608
-0.537608
-0.514763
-0.514763
-0.514763
-0.514763
-0.520474
-0.509051
-0.520474
-0.389115
-0.200644
-0.052151
-0.035018
-0.166376
-0.177799
-0.280601
-0.446228
-0.423383
-0.411960
-0.394826
-0.406249
-0.531896
-0.646121
-0.606143
-0.703234
-0.257756
1.392794
2.563600
2.569311
1.415639
-0.114975
-0.509051
-0.440516
-0.423383
-0.366270
-0.343425
-0.303446
-0.280601
-0.246334
-0.229200
-0.200644
-0.172088
-0.149243
-0.080708
-0.035018
0.027806
0.084919
0.159165
0.376192
0.547530
0.741712
0.975873
1.164344
1.238591
1.261436
1.329971
1.261436
1.027274
0.650332
0.381903
0.290523
0.261967
0.244833
0.164876
0.102052
0.022095
-0.137820
-0.212066
-0.200644
-0.194933
-0.263468
-0.280601
-0.337714
-0.440516
-0.429094
-0.457650
-0.457650
-0.474784
-0.526185
-0.543319
-0.549030
-0.537608
-0.549030
-0.537608
-0.554741
-0.549030
-0.606143
-0.663255
-0.537608
-0.457650
-0.446228
-0.360559
-0.212066
-0.172088
-0.160665
-0.229200
-0.292024
-0.189221
-0.149243
-0.092130
-0.074996
-0.189221
-0.143531
0.022095
0.062074
-0.017884
-0.040729
0.159165
0.364770
0.313368
0.244833
0.119186
-0.040729
-0.097841
-0.200644
-0.189221
-0.223489
-0.360559
-0.371981
-0.326291
-0.337714
-0.274890
-0.314869
-0.269179
1.084387
2.706381
2.854874
1.604111
0.027806
-0.337714
-0.183510
-0.183510
-0.074996
-0.303446
-0.240623
-0.069285
-0.126398
-0.069285
-0.052151
-0.000750
-0.063574
0.039229
0.221988
0.182010
0.301946
0.376192
0.444727
0.633198
0.861648
1.112943
1.112943
1.278569
1.478463
1.335682
1.272858
1.004429
0.741712
0.627487
0.353347
0.210566
0.147742
0.136320
0.142031
0.102052
0.119186
0.102052
-0.097841
-0.177799
-0.086419
0.016384
0.119186
0.113475
0.113475
0.113475
0.113475
0.107764
0.062074
0.010672
0.039229
0.102052
0.067785
0.062074
0.033517
0.033517
0.113475
0.096341
0.039229
-0.000750
-0.046440
-0.137820
-0.183510
-0.166376
-0.217778
-0.274890
-0.314869
-0.394826
-0.434805
-0.429094
-0.411960
-0.400538
-0.394826
-0.434805
-0.423383
-0.440516
-0.434805
-0.200644
-0.177799
-0.217778
-0.377693
-0.628988
-0.594720
-0.731790
-0.840304
-0.823170
-0.811747
-0.794614
-0.811747
-0.783191
-0.823170
-0.754635
-0.857437
-0.137820
1.638378
2.392263
1.695490
0.142031
-0.857437
-0.754635
-0.589009
-0.560453
-0.634699
-0.554741
-0.543319
-0.731790
-0.674677
-0.606143
-0.566164
-0.486206
-0.457650
-0.394826
-0.377693
-0.309158
-0.160665
-0.160665
-0.086419
0.187721
0.376192
0.576086
0.798825
0.850226
0.810247
0.764557
0.764557
0.490417
0.096341
-0.092130
-0.309158
-0.423383
-0.400538
-0.343425
-0.354848
-0.514763
-0.577586
-0.543319
-0.526185
-0.509051
-0.480495
-0.474784
-0.434805
-0.446228
-0.560453
-0.560453
-0.514763
-0.509051
-0.457650
-0.469073
-0.526185
-0.503340
-0.589009
-0.623276
-0.549030
-0.543319
-0.474784
-0.474784
-0.549030
-0.594720
-0.668966
-0.697522
-0.674677
-0.703234
-0.766057
-0.743212
-0.697522
-0.663255
-0.634699
-0.657544
-0.674677
-0.691811
-0.714656
-0.743212
-0.726079
-0.686100
-0.657544
-0.617565
-0.554741
-0.497629
-0.383404
-0.314869
-0.503340
-0.463361
-0.451939
-0.680389
-0.623276
-0.783191
-0.954529
-0.880282
-0.943106
-0.891705
-0.937395
-0.874571
-0.840304
-0.971662
0.090630
1.655512
2.409396
1.718335
-0.040729
-0.851726
-0.800325
-0.560453
-0.560453
-0.834592
-0.828881
-0.817459
-0.766057
-0.680389
-0.640410
-0.594720
-0.571875
-0.531896
-0.503340
-0.343425
-0.297735
-0.286313
0.119186
0.193432
0.079207
0.347636
0.621776
0.873071
0.913049
0.833092
0.781691
0.656043
0.421882
0.113475
-0.063574
-0.280601
-0.423383
-0.411960
-0.423383
-0.377693
-0.446228
-0.480495
-0.451939
-0.526185
-0.503340
-0.486206
-0.474784
-0.440516
-0.417671
-0.389115
-0.371981
-0.332003
-0.394826
-0.434805
-0.389115
-0.491918
-0.531896
-0.469073
-0.434805
-0.406249
-0.366270
-0.349136
-0.292024
-0.309158
-0.520474
-0.554741
-0.531896
-0.526185
-0.509051
-0.509051
-0.480495
-0.463361
-0.446228
-0.417671
-0.394826
-0.497629
-0.554741
-0.537608
-0.549030
-0.537608
-0.543319
-0.486206
-0.411960
-0.366270
-0.320580
-0.274890
-0.229200
-0.229200
-0.223489
-0.280601
-0.429094
-0.417671
-0.400538
-0.537608
-0.634699
-0.554741
-0.589009
-0.686100
-0.668966
-0.600431
-0.526185
-0.651832
0.347636
2.066722
2.683536
2.072433
0.381903
-0.657544
-0.451939
-0.252045
-0.394826
-0.554741
-0.486206
-0.451939
-0.429094
-0.423383
-0.434805
-0.423383
-0.394826
-0.337714
-0.286313
-0.132109
-0.046440
0.033517
0.227700
0.347636
0.467572
0.690311
0.964451
1.107232
1.101521
1.101521
1.038697
0.930183
0.775980
0.524685
0.244833
0.050651
-0.023595
-0.160665
-0.183510
-0.166376
-0.349136
-0.377693
-0.332003
-0.337714
-0.309158
-0.297735
-0.280601
-0.269179
-0.246334
-0.223489
-0.206355
-0.177799
-0.172088
-0.280601
-0.326291
-0.286313
-0.274890
-0.257756
-0.246334
-0.326291
-0.411960
-0.394826
-0.400538
-0.383404
-0.366270
-0.377693
-0.360559
-0.343425
-0.343425
-0.343425
-0.343425
-0.343425
-0.320580
-0.314869
-0.309158
-0.292024
-0.280601
-0.286313
-0.234911
-0.212066
-0.297735
-0.360559
-0.297735
-0.206355
-0.303446
-0.206355
-0.012173
-0.006461
0.084919
0.073496
-0.154954
-0.166376
-0.149243
-0.286313
-0.434805
-0.469073
-0.366270
-0.429094
-0.400538
-0.469073
-0.417671
-0.383404
-0.554741
0.616065
2.249482
2.769205
1.861117
0.324791
-0.389115
-0.491918
-0.394826
-0.389115
-0.434805
-0.389115
-0.383404
-0.343425
-0.292024
-0.257756
-0.194933
-0.149243
-0.086419
-0.052151
-0.023595
0.182010
0.239122
0.341925
0.524685
0.661755
0.810247
0.947317
1.215746
1.278569
1.232879
1.187189
1.072964
0.890204
0.633198
0.376192
0.119186
0.039229
0.033517
-0.012173
-0.012173
-0.114975
-0.274890
-0.292024
-0.240623
-0.234911
-0.194933
-0.177799
-0.234911
-0.160665
-0.154954
-0.212066
-0.189221
-0.160665
-0.223489
-0.383404
-0.354848
-0.274890
-0.246334
-0.263468
-0.314869
-0.309158
-0.314869
-0.314869
-0.314869
-0.314869
-0.309158
-0.280601
-0.252045
-0.234911
-0.189221
-0.269179
-0.400538
-0.337714
-0.314869
-0.263468
-0.189221
-0.349136
-0.411960
-0.394826
-0.406249
-0.394826
-0.406249
-0.292024
-0.217778
-0.154954
0.016384
0.142031
-0.035018
-0.172088
-0.183510
-0.423383
-0.457650
-0.411960
-0.406249
-0.457650
-0.497629
-0.406249
-0.429094
-0.297735
-0.520474
-0.189221
1.455618
2.540755
2.329439
0.884493
-0.509051
-0.663255
-0.549030
-0.480495
-0.411960
-0.457650
-0.457650
-0.446228
-0.423383
-0.400538
-0.360559
-0.303446
-0.263468
-0.206355
-0.109264
-0.023595
0.067785
0.090630
0.176298
0.461861
0.730290
0.855937
0.993007
1.227168
1.204323
1.324259
1.455618
1.192901
1.050119
0.804536
0.507551
0.324791
0.204855
0.193432
0.136320
0.113475
0.067785
0.039229
-0.000750
-0.063574
0.033517
0.022095
0.039229
0.159165
0.136320
0.033517
0.216277
0.530396
0.656043
0.616065
0.427593
0.484706
0.507551
0.433305
0.427593
0.364770
0.347636
0.341925
0.341925
0.370481
0.507551
0.593220
0.576086
0.536107
0.513262
0.467572
0.473283
0.518973
0.490417
0.593220
0.621776
0.581797
0.564663
0.530396
0.518973
0.439016
0.604642
0.598931
0.661755
0.815958
0.610353
0.536107
0.439016
0.593220
0.833092
0.758846
0.747423
0.798825
0.953028
1.015852
0.884493
0.907338
0.638910
0.718867
2.112412
3.523090
3.694427
2.369418
0.850226
0.410460
0.593220
0.650332
0.564663
0.558952
0.478995
0.484706
0.484706
0.410460
0.564663
0.661755
0.758846
0.901627
0.781691
0.935894
1.141499
0.958739
1.141499
1.324259
1.375661
1.666934
1.821138
2.061010
-0.668966
-0.680389
-0.760346
-0.657544
0.753135
4.202728
3.460266
-0.646121
-1.040197
-0.577586
-0.634699
-0.526185
-0.611854
-0.537608
-0.594720
-0.554741
-0.566164
-0.526185
-0.503340
-0.491918
-0.377693
-0.246334
-0.143531
-0.080708
0.107764
0.319080
0.416171
0.633198
0.707445
0.736001
0.764557
0.307657
-0.029306
-0.103553
-0.286313
-0.354848
-0.469073
-0.543319
-0.549030
-0.537608
-0.486206
-0.594720
-0.617565
-0.554741
-0.537608
-0.589009
-0.611854
-0.571875
-0.514763
-0.411960
-0.423383
-0.514763
-0.480495
-0.440516
-0.429094
-0.360559
-0.440516
-0.411960
-0.446228
-0.680389
-0.600431
-0.520474
-0.531896
-0.491918
-0.480495
-0.463361
-0.417671
-0.354848
-0.189221
-0.160665
-0.012173
0.147742
-0.297735
-0.434805
-0.446228
-0.606143
-0.634699
-0.674677
-0.668966
-0.640410
-0.668966
-0.657544
-0.640410
-0.714656
-0.583298
1.255724
4.608227
3.003366
-0.880282
-0.880282
-0.560453
-0.520474
-0.571875
-0.737501
-0.583298
-0.571875
-0.480495
-0.474784
-0.417671
-0.383404
-0.354848
-0.303446
-0.240623
-0.160665
-0.046440
0.096341
0.273390
0.536107
0.661755
0.770268
0.850226
0.616065
0.290523
0.067785
-0.109264
-0.257756
-0.223489
-0.297735
-0.469073
-0.411960
-0.394826
-0.389115
-0.354848
-0.360559
-0.320580
-0.366270
-0.497629
-0.417671
-0.360559
-0.320580
-0.280601
-0.252045
-0.177799
-0.332003
-0.292024
-0.246334
-0.337714
-0.269179
-0.274890
-0.240623
-0.223489
-0.280601
-0.297735
-0.286313
-0.286313
-0.269179
-0.252045
-0.263468
-0.223489
-0.217778
-0.160665
0.050651
0.187721
0.210566
0.221988
0.119186
0.050651
0.073496
-0.080708
-0.212066
-0.257756
-0.292024
-0.377693
-0.332003
-0.320580
-0.286313
-0.217778
-0.326291
-0.074996
2.095278
5.202197
2.963388
-0.674677
-0.434805
-0.257756
-0.194933
-0.177799
-0.217778
-0.132109
-0.183510
-0.109264
-0.246334
-0.234911
-0.200644
-0.177799
-0.103553
0.016384
0.090630
0.159165
0.387615
0.627487
0.844515
0.964451
1.050119
1.101521
0.924472
0.638910
0.370481
0.147742
0.022095
-0.029306
-0.103553
-0.126398
-0.109264
-0.177799
-0.206355
-0.200644
-0.200644
-0.200644
-0.200644
-0.166376
-0.137820
-0.109264
-0.074996
-0.035018
-0.052151
-0.154954
-0.183510
-0.160665
-0.149243
-0.126398
-0.109264
-0.126398
-0.149243
-0.137820
-0.149243
-0.166376
-0.189221
-0.200644
-0.229200
-0.212066
-0.177799
-0.149243
-0.109264
-0.223489
-0.314869
-0.246334
-0.200644
-0.166376
-0.097841
-0.229200
-0.269179
-0.103553
0.050651
0.221988
0.221988
0.170587
0.147742
0.090630
0.039229
-0.143531
-0.257756
-0.263468
-0.252045
-0.257756
-0.263468
-0.229200
-0.257756
-0.189221
-0.280601
-0.177799
0.895916
4.362643
5.019437
0.513262
-0.823170
-0.114975
-0.246334
-0.057863
-0.223489
-0.206355
-0.194933
-0.120686
-0.103553
-0.074996
-0.023595
-0.023595
0.050651
0.033517
0.204855
0.330502
0.341925
0.564663
0.861648
1.032986
1.152922
1.267147
1.095809
0.804536
0.536107
0.273390
0.136320
0.033517
-0.040729
-0.080708
-0.109264
-0.137820
-0.212066
-0.229200
-0.194933
-0.183510
-0.154954
-0.137820
-0.120686
-0.092130
-0.074996
-0.057863
-0.023595
-0.069285
-0.126398
-0.103553
-0.086419
-0.074996
-0.052151
-0.080708
-0.183510
-0.234911
-0.229200
-0.229200
-0.229200
-0.223489
-0.246334
-0.252045
-0.269179
-0.332003
-0.303446
-0.257756
-0.223489
-0.200644
-0.200644
-0.206355
-0.189221
-0.246334
-0.371981
-0.366270
-0.343425
-0.326291
-0.309158
-0.320580
-0.309158
-0.320580
-0.309158
-0.326291
-0.234911
-0.000750
0.164876
0.159165
0.119186
0.062074
-0.137820
-0.252045
-0.303446
-0.349136
-0.394826
-0.457650
-0.474784
-0.434805
-0.486206
-0.434805
-0.434805
-0.343425
0.090630
2.449375
5.504893
2.672114
-0.954529
-0.480495
-0.394826
-0.389115
-0.383404
-0.406249
-0.326291
-0.366270
-0.292024
-0.314869
-0.269179
-0.263468
-0.240623
-0.217778
-0.137820
0.010672
0.136320
0.279101
0.501840
0.736001
0.964451
1.050119
0.993007
0.850226
0.547530
0.227700
-0.006461
-0.137820
-0.263468
-0.303446
-0.332003
-0.383404
-0.360559
-0.383404
-0.360559
-0.360559
-0.429094
-0.411960
-0.389115
-0.371981
-0.343425
-0.332003
-0.314869
-0.314869
-0.314869
-0.314869
-0.320580
-0.337714
-0.360559
-0.377693
-0.394826
-0.417671
-0.429094
-0.429094
-0.423383
-0.440516
-0.406249
-0.451939
-0.520474
-0.486206
-0.474784
-0.451939
-0.423383
-0.451939
-0.457650
-0.457650
-0.451939
-0.463361
-0.446228
-0.429094
-0.429094
-0.411960
-0.400538
-0.394826
-0.451939
-0.480495
-0.429094
-0.400538
-0.354848
-0.326291
-0.246334
-0.080708
0.016384
-0.023595
-0.097841
-0.303446
-0.463361
-0.474784
-0.549030
-0.594720
-0.657544
-0.731790
-0.760346
-0.840304
-0.760346
-0.834592
-0.794614
-0.069285
2.906275
4.762431
0.804536
-1.542787
-0.760346
-0.977374
-0.868860
-0.903127
-0.857437
-0.817459
-0.828881
-0.754635
-0.794614
-0.748924
-0.748924
-0.708945
-0.691811
-0.628988
-0.486206
-0.360559
-0.200644
0.016384
0.227700
0.399037
0.501840
0.439016
0.187721
-0.063574
-0.332003
-0.628988
-0.760346
-0.891705
-0.988796
-0.960240
-1.011641
-1.091599
-1.120155
-1.114444
-1.091599
-1.085887
-1.080176
-1.063042
-1.045909
-1.028775
-1.011641
-1.000219
-0.983085
-0.971662
-0.948817
-0.937395
-0.914550
-0.914550
-0.960240
-0.977374
-0.965951
-0.977374
-0.965951
-0.983085
-1.000219
-1.000219
-1.068754
-1.080176
-1.040197
-1.023064
-0.988796
-0.965951
-0.943106
-0.914550
-0.885994
-0.874571
-0.817459
-0.914550
-1.103021
-1.080176
-1.028775
-1.000219
-0.977374
-0.965951
-0.937395
-0.920261
-0.897416
-0.874571
-0.726079
-0.594720
-0.594720
-0.611854
-0.623276
-0.640410
-0.720367
-0.800325
-0.863149
-0.937395
-0.914550
-0.931684
-0.880282
-0.897416
-0.868860
-0.834592
-0.920261
-0.714656
1.158633
4.545403
2.832029
-1.211535
-1.125866
-0.851726
-0.868860
-0.777480
-0.880282
-0.783191
-0.863149
-0.800325
-0.800325
-0.748924
-0.726079
-0.691811
-0.663255
-0.594720
-0.406249
-0.246334
-0.069285
0.102052
0.313368
0.524685
0.650332
0.684600
0.530396
0.244833
-0.040729
-0.280601
-0.497629
-0.663255
-0.697522
-0.737501
-0.800325
-0.817459
-0.846015
-0.851726
-0.811747
-0.783191
-0.754635
-0.720367
-0.691811
-0.663255
-0.657544
-0.657544
-0.628988
-0.628988
-0.623276
-0.600431
-0.600431
-0.600431
-0.600431
-0.600431
-0.600431
-0.600431
-0.600431
-0.600431
-0.594720
-0.606143
-0.628988
-0.628988
-0.628988
-0.628988
-0.628988
-0.611854
-0.583298
-0.566164
-0.549030
-0.514763
-0.526185
-0.549030
-0.543319
-0.537608
-0.514763
-0.514763
-0.503340
-0.474784
-0.463361
-0.434805
-0.417671
-0.400538
-0.309158
-0.172088
0.004961
0.022095
-0.023595
-0.126398
-0.371981
-0.417671
-0.423383
-0.514763
-0.503340
-0.623276
-0.606143
-0.657544
-0.657544
-0.657544
-0.754635
-0.332003
1.621244
4.830966
2.826318
-1.051620
-0.760346
-0.646121
-0.617565
-0.474784
-0.543319
-0.417671
-0.480495
-0.389115
-0.406249
-0.343425
-0.303446
-0.257756
-0.212066
-0.160665
-0.040729
0.073496
0.239122
0.439016
0.696022
0.924472
0.981584
0.935894
0.890204
0.696022
0.376192
0.119186
-0.092130
-0.234911
-0.303446
-0.343425
-0.343425
-0.343425
-0.343425
-0.343425
-0.332003
-0.309158
-0.314869
-0.292024
-0.286313
-0.286313
-0.257756
-0.257756
-0.257756
-0.257756
-0.257756
-0.246334
-0.229200
-0.212066
-0.194933
-0.177799
-0.172088
-0.206355
-0.246334
-0.246334
-0.223489
-0.229200
-0.229200
-0.229200
-0.229200
-0.200644
-0.200644
-0.194933
-0.172088
-0.172088
-0.189221
-0.200644
-0.200644
-0.217778
-0.234911
-0.229200
-0.229200
-0.229200
-0.229200
-0.229200
-0.229200
-0.212066
-0.103553
-0.000750
0.147742
0.324791
0.273390
0.199143
0.142031
0.050651
-0.040729
-0.166376
-0.149243
-0.274890
-0.337714
-0.252045
-0.309158
-0.189221
-0.280601
-0.183510
0.753135
3.877187
4.905212
0.747423
-0.794614
-0.092130
-0.212066
0.022095
-0.103553
-0.023595
-0.029306
-0.040729
0.010672
0.010672
0.079207
0.079207
0.130608
0.199143
0.233411
0.376192
0.553241
0.764557
1.004429
1.215746
1.369949
1.427062
1.421351
1.170056
0.895916
0.638910
0.370481
0.250545
0.153453
0.090630
0.073496
0.050651
0.033517
0.004961
0.004961
0.033517
0.050651
0.067785
0.096341
0.113475
0.113475
0.107764
0.124897
0.187721
0.204855
0.193432
0.199143
0.199143
0.199143
0.199143
0.199143
0.199143
0.199143
0.199143
0.176298
0.170587
0.170587
0.170587
0.170587
0.170587
0.170587
0.170587
0.170587
0.170587
0.170587
0.199143
0.256256
0.256256
0.261967
0.250545
0.256256
0.301946
0.393326
0.541818
0.701733
0.844515
0.833092
0.775980
0.633198
0.456150
0.399037
0.307657
0.324791
0.296235
0.324791
0.307657
0.307657
0.313368
0.182010
0.341925
1.809715
5.225042
4.316953
0.359058
0.164876
0.444727
0.410460
0.513262
0.399037
0.501840
0.421882
0.496128
0.490417
0.518973
0.518973
0.496128
0.644621
0.701733
0.758846
0.918761
1.032986
1.272858
1.507019
1.712624
1.849694
1.769737
1.672645
1.495597
1.232879
0.998718
0.804536
0.701733
0.604642
0.536107
0.536107
0.541818
0.547530
0.536107
0.553241
0.513262
0.467572
0.610353
0.638910
0.616065
0.610353
0.587508
0.610353
0.627487
0.656043
0.633198
0.627487
0.627487
0.598931
0.598931
0.598931
0.598931
0.598931
0.598931
0.598931
0.598931
0.598931
0.598931
0.598931
0.598931
0.593220
0.604642
0.627487
0.627487
0.650332
0.656043
0.678888
0.781691
0.947317
1.141499
1.130077
0.981584
0.913049
0.838803
0.770268
0.678888
0.621776
0.593220
0.581797
0.564663
0.536107
0.564663
0.627487
0.667466
1.798293
5.156507
4.796698
0.764557
0.210566
0.753135
0.690311
0.770268
0.661755
0.724578
0.650332
0.741712
0.838803
0.815958
0.838803
0.810247
0.827381
1.055831
1.152922
1.130077
1.289992
1.507019
1.695490
1.935363
2.038165
2.009609
1.981053
1.724047
1.461329
1.301414
1.101521
0.953028
0.873071
0.798825
0.764557
0.730290
0.713156
0.684600
0.656043
0.736001
0.781691
0.764557
0.770268
0.770268
0.770268
0.741712
0.741712
0.741712
0.736001
0.747423
0.724578
0.713156
0.713156
0.713156
0.707445
0.718867
0.736001
0.478995
0.484706
0.507551
0.496128
0.690311
0.815958
0.650332
0.387615
0.107764
-0.286313
-0.611854
-0.680389
-0.720367
-0.674677
-0.594720
-0.543319
-0.486206
-0.417671
-0.429094
-0.411960
-0.474784
-0.646121
-0.686100
-0.880282
-1.000219
-0.994507
-1.040197
-1.017352
-1.080176
-1.251514
-1.325760
-1.308626
-1.337182
-1.371450
-1.417140
-1.479963
-1.548498
-1.634167
-1.628456
-1.605611
-1.599900
-1.571343
-1.571343
-1.508520
-1.428562
-1.331471
-1.120155
-0.943106
-0.748924
-0.514763
-0.446228
-0.583298
-0.663255
-0.691811
-0.857437
-0.908839
-0.977374
-1.028775
-1.148711
-1.234380
-1.188690
-1.537076
-0.731790
1.609822
4.008546
3.386020
-0.166376
-1.314337
-0.954529
-1.131577
-1.051620
-1.125866
-1.108732
-1.085887
-1.040197
-0.977374
-0.943106
-0.737501
-0.566164
-0.434805
-0.337714
-0.252045
-0.252045
-0.212066
-0.035018
0.159165
0.564663
0.798825
1.067253
1.467041
1.701202
1.821138
1.781159
1.752603
1.495597
1.210034
0.855937
0.393326
0.170587
-0.092130
-0.343425
-0.474784
-0.549030
-0.617565
-0.731790
-0.743212
-0.708945
-0.697522
-0.668966
-0.657544
-0.634699
-0.623276
-0.600431
-0.589009
-0.571875
-0.583298
-0.726079
-0.874571
-0.988796
-1.074465
-1.103021
-1.108732
-1.085887
-1.085887
-1.085887
-1.080176
-1.085887
-1.063042
-1.034486
-1.017352
-0.988796
-0.965951
-0.920261
-0.897416
-0.897416
-0.943106
-1.068754
-1.080176
-1.297204
-1.514231
-1.542787
-1.691280
-1.696991
-1.868328
-1.679857
-1.902596
-2.119623
-0.406249
2.032454
3.768674
1.775448
-1.411428
-1.577055
-1.382872
-1.405717
-1.302915
-1.314337
-1.228669
-1.217246
-1.143000
-1.108732
-1.040197
-0.971662
-0.880282
-0.731790
-0.566164
-0.354848
-0.160665
0.107764
0.376192
0.644621
0.878782
1.078676
1.312837
1.495597
1.718335
1.758314
1.678357
1.581266
1.335682
1.021563
0.684600
0.444727
0.330502
0.164876
0.062074
0.124897
0.016384
-0.143531
-0.183510
-0.172088
-0.154954
-0.137820
-0.120686
-0.109264
-0.092130
-0.086419
-0.086419
-0.086419
-0.080708
-0.149243
-0.212066
-0.194933
-0.200644
-0.206355
-0.194933
-0.240623
-0.337714
-0.406249
-0.446228
-0.537608
-0.674677
-0.668966
-0.617565
-0.600431
-0.520474
-0.469073
-0.371981
-0.326291
-0.526185
-0.589009
-0.697522
-0.868860
-0.777480
-0.823170
-0.737501
-0.771769
-0.708945
-0.617565
-0.948817
0.307657
2.843451
5.053704
4.094215
0.553241
-0.457650
-0.183510
-0.309158
-0.217778
-0.303446
-0.411960
-0.417671
-0.377693
-0.360559
-0.332003
-0.303446
-0.280601
-0.252045
-0.229200
-0.212066
-0.132109
0.010672
0.193432
0.313368
0.490417
0.753135
0.810247
0.913049
0.970162
0.884493
0.867359
0.804536
0.747423
0.547530
0.221988
0.039229
-0.132109
-0.257756
-0.252045
-0.257756
-0.257756
-0.389115
-0.543319
-0.554741
-0.606143
-0.646121
-0.708945
-0.737501
-0.737501
-0.960240
-1.080176
-1.143000
-1.297204
-1.360027
-1.394295
-1.422851
-1.428562
-1.428562
-1.428562
-1.428562
-1.422851
-1.388584
-1.354316
-1.325760
-1.291492
-1.262936
-1.234380
-1.194401
-1.160134
-1.091599
-1.005930
-0.948817
-0.880282
-0.834592
-0.754635
-0.537608
-0.274890
-0.092130
-0.103553
-0.177799
-0.223489
-0.246334
-0.229200
-0.360559
-0.486206
-0.554741
-0.554741
-0.566164
-0.617565
-0.549030
-0.914550
-0.383404
1.792582
4.288397
4.294108
0.850226
-0.811747
-0.360559
-0.469073
-0.411960
-0.434805
-0.434805
-0.411960
-0.411960
-0.389115
-0.411960
-0.394826
-0.406249
-0.417671
-0.463361
-0.446228
-0.474784
-0.537608
-0.503340
-0.451939
-0.309158
-0.154954
-0.029306
0.142031
0.393326
0.558952
0.576086
0.478995
0.193432
-0.189221
-0.491918
-0.737501
-1.011641
-1.217246
-1.262936
-1.297204
-1.411428
-1.491386
-1.491386
-1.457118
-1.428562
-1.394295
-1.360027
-1.348605
-1.371450
-1.382872
-1.400006
-1.422851
-1.422851
-1.468541
-1.542787
-1.617033
-1.657012
-1.668435
-1.685568
-1.662723
-1.651301
-1.651301
-1.611322
-1.662723
-1.714125
-1.668435
-1.634167
-1.594188
-1.554210
-1.525653
-1.491386
-1.462830
-1.428562
-1.400006
-1.348605
-1.274359
-1.211535
-1.194401
-1.182979
-1.165845
-1.143000
-1.143000
-1.171556
-1.217246
-1.217246
-1.154422
-1.108732
-0.943106
-0.771769
-0.771769
-0.771769
-0.771769
-0.874571
-0.960240
-0.925972
-0.960240
-1.137289
-1.268647
-1.268647
-1.400006
-1.417140
-1.497097
-1.811216
-0.771769
1.626955
3.860054
2.809184
-0.520474
-1.160134
-0.817459
-0.937395
-0.788902
-0.806036
-0.680389
-0.657544
-0.583298
-0.480495
-0.343425
-0.143531
0.010672
0.124897
0.153453
0.284812
0.421882
0.547530
0.753135
0.930183
1.112943
1.381372
1.746892
2.112412
2.369418
2.637846
2.837740
2.769205
2.603579
2.369418
2.015320
1.689779
1.569843
1.564132
1.581266
1.592688
1.604111
1.626955
1.661223
1.804004
1.872539
1.935363
1.975342
2.026743
2.118123
2.118123
2.146679
2.163813
2.180947
2.209503
2.220925
2.198080
2.152390
2.118123
2.078144
2.043877
2.009609
1.986764
1.969630
1.946785
1.923940
1.901095
1.889673
1.866828
1.861117
1.832560
1.838272
1.746892
1.449907
1.329971
1.192901
1.004429
0.975873
0.873071
0.878782
0.741712
0.781691
0.513262
0.239122
1.575554
4.031391
5.893258
3.802941
0.775980
0.576086
0.547530
0.461861
0.456150
0.370481
0.427593
0.370481
0.387615
0.359058
0.393326
0.473283
0.473283
0.587508
0.758846
0.901627
1.027274
1.038697
1.118654
1.232879
1.312837
1.512731
1.752603
1.975342
2.198080
2.249482
2.215214
2.100989
1.855405
1.655512
1.238591
0.907338
0.844515
0.753135
0.696022
0.598931
0.501840
0.450438
0.416171
0.370481
0.341925
0.290523
0.313368
0.421882
0.433305
0.467572
0.513262
0.507551
0.518973
0.507551
0.530396
0.616065
0.638910
0.667466
0.913049
1.221457
1.295703
1.278569
1.192901
0.924472
0.884493
0.747423
0.456150
0.410460
0.341925
0.473283
0.450438
0.536107
0.341925
0.210566
1.701202
4.368355
6.121708
3.722984
0.913049
0.890204
0.953028
0.998718
1.010141
0.975873
1.084387
1.192901
1.324259
1.421351
1.472752
1.478463
1.575554
1.615533
1.764025
1.866828
1.906807
2.100989
2.169524
2.352284
2.580734
2.814895
3.106169
3.294640
3.431710
3.403154
3.317485
3.163281
2.803473
2.477931
2.249482
2.032454
1.821138
1.615533
1.501308
1.507019
1.512731
1.507019
1.512731
1.507019
1.524153
1.546998
1.535576
1.592688
1.666934
1.746892
1.832560
1.821138
1.832560
1.855405
1.855405
1.843983
1.804004
1.764025
1.729758
1.684068
1.655512
1.655512
1.649800
1.661223
1.644089
1.689779
1.883962
2.032454
2.043877
2.078144
1.895384
1.655512
1.638378
1.404217
1.244302
1.307126
1.198612
1.244302
1.118654
1.061542
0.810247
0.621776
1.941074
4.202728
6.350158
4.985169
1.775448
1.244302
1.301414
1.204323
1.232879
1.147211
1.215746
1.187189
1.204323
1.181478
1.147211
1.261436
1.295703
1.347104
1.467041
1.586977
1.769737
1.918229
2.066722
2.203792
2.415108
2.620713
2.849163
3.043345
3.208971
3.425999
3.425999
3.317485
3.106169
2.729226
2.375129
2.135257
1.866828
1.661223
1.558421
1.444196
1.358527
1.284281
1.250013
1.210034
1.175767
1.135788
1.055831
0.975873
0.918761
0.907338
0.890204
0.873071
0.855937
0.844515
0.787402
0.713156
0.656043
0.604642
0.553241
0.507551
0.467572
0.433305
0.393326
0.353347
0.319080
0.290523
0.279101
0.261967
0.244833
0.227700
0.233411
0.279101
0.284812
0.284812
0.279101
0.341925
0.484706
0.513262
0.513262
0.507551
0.513262
0.507551
0.541818
0.850226
0.947317
0.947317
0.941606
0.753135
0.650332
0.576086
0.404748
0.273390
0.313368
0.336213
0.319080
0.227700
0.244833
0.004961
0.113475
1.758314
4.488291
5.539160
2.620713
0.239122
0.341925
0.261967
0.261967
0.239122
0.210566
0.244833
0.210566
0.239122
0.221988
0.233411
0.250545
0.319080
0.336213
0.381903
0.456150
0.490417
0.536107
0.610353
0.696022
0.770268
1.015852
1.250013
1.409928
1.558421
1.541287
1.518442
1.318548
0.895916
0.490417
0.050651
-0.343425
-0.571875
-0.686100
-0.714656
-0.731790
-0.754635
-0.766057
-0.817459
-0.880282
-0.885994
-0.885994
-0.885994
-0.885994
-0.880282
-0.983085
-1.080176
-1.080176
-1.085887
-1.103021
-1.120155
-1.103021
-1.160134
-1.240091
-1.217246
-1.268647
-1.405717
-1.468541
-1.514231
-1.525653
-1.577055
-1.702702
-1.754103
-1.794082
-1.828350
-1.839772
-1.862617
-1.874040
-1.902596
-1.953997
-1.948286
-1.936863
-1.942575
-1.942575
-1.942575
-1.925441
-1.896885
-1.851195
-1.839772
-1.679857
-1.508520
-1.514231
-1.542787
-1.554210
-1.571343
-1.725547
-1.811216
-2.011110
-2.153891
-2.159602
-2.290961
-2.285249
-2.348073
-2.250982
-2.542256
-2.422319
-0.469073
2.175235
2.774916
-0.292024
-2.536544
-2.211003
-2.182447
-2.250982
-2.285249
-2.330939
-2.296672
-2.325228
-2.302383
-2.325228
-2.290961
-2.250982
-2.205292
-2.159602
-2.113912
-2.068222
-2.022532
-1.982553
-1.976842
-1.771237
-1.474252
-1.251514
-0.971662
-0.743212
-0.537608
-0.371981
-0.332003
-0.343425
-0.486206
-0.851726
-1.211535
-1.388584
-1.514231
-1.639878
-1.696991
-1.674146
-1.634167
-1.611322
-1.559921
-1.491386
-1.428562
-1.371450
-1.314337
-1.262936
-1.257225
-1.251514
-1.234380
-1.222957
-1.240091
-1.257225
-1.257225
-1.257225
-1.251514
-1.291492
-1.320049
-1.331471
-1.348605
-1.337182
-1.342894
-1.337182
-1.342894
-1.314337
-1.257225
-1.200112
-1.034486
-0.960240
-1.005930
-1.051620
-1.080176
-1.017352
-0.954529
-0.914550
-0.851726
-0.834592
-0.817459
-0.800325
-0.817459
-0.983085
-1.285781
-1.394295
-1.531365
-1.491386
-1.537076
-1.491386
-1.542787
-1.925441
-0.754635
1.621244
3.751540
2.489354
-1.017352
-1.776948
-1.514231
-1.617033
-1.554210
-1.657012
-1.685568
-1.725547
-1.799793
-1.794082
-1.771237
-1.702702
-1.588477
-1.531365
-1.491386
-1.439985
-1.411428
-1.331471
-1.262936
-1.160134
-0.954529
-0.743212
-0.509051
-0.292024
-0.046440
0.096341
0.050651
0.004961
-0.126398
-0.411960
-0.788902
-1.063042
-1.188690
-1.360027
-1.422851
-1.365739
-1.325760
-1.280070
-1.240091
-1.194401
-1.143000
-1.091599
-1.000219
-0.908839
0.930183
2.346573
3.745829
1.826849
0.336213
-0.303446
-0.554741
-0.623276
-0.794614
-0.748924
-0.766057
-0.726079
-0.720367
-0.708945
-0.674677
-0.646121
-0.606143
-0.583298
-0.549030
-0.520474
-0.497629
-0.474784
-0.446228
-0.332003
-0.212066
-0.109264
0.039229
0.193432
0.370481
0.587508
0.758846
0.970162
1.067253
1.015852
0.981584
0.793113
0.484706
0.182010
-0.092130
-0.269179
-0.394826
-0.469073
-0.486206
-0.486206
-0.486206
-0.486206
-0.480495
-0.463361
-0.457650
-0.457650
-0.457650
-0.457650
-0.457650
-0.457650
-0.457650
-0.457650
-0.457650
-0.457650
-0.429094
-0.429094
-0.423383
-0.400538
-0.400538
-0.411960
-0.429094
-0.429094
-0.429094
-0.429094
-0.423383
-0.406249
-0.389115
-0.377693
-0.354848
-0.337714
-0.354848
-0.371981
-0.389115
-0.406249
-0.423383
-0.429094
-0.400538
-0.400538
-0.389115
-0.371981
-0.371981
-0.383404
-0.400538
-0.400538
-0.423383
-0.429094
-0.429094
-0.429094
-0.429094
-0.429094
-0.429094
-0.429094
-0.417671
-0.400538
-0.400538
-0.400538
-0.400538
-0.400538
-0.354848
-0.309158
-0.257756
-0.212066
-0.200644
-0.177799
-0.172088
-0.194933
-0.206355
-0.212066
-0.371981
-0.434805
-0.469073
-0.411960
-0.074996
1.661223
4.054236
3.191837
0.970162
0.193432
-0.120686
-0.206355
-0.252045
-0.223489
-0.229200
-0.234911
-0.223489
-0.229200
-0.200644
-0.194933
-0.172088
-0.160665
-0.143531
-0.132109
-0.092130
-0.063574
-0.029306
0.033517
0.107764
0.227700
0.353347
0.513262
0.644621
0.804536
1.027274
1.210034
1.347104
1.392794
1.347104
1.210034
0.947317
0.633198
0.393326
0.107764
-0.092130
-0.137820
-0.206355
-0.229200
-0.229200
-0.229200
-0.252045
-0.257756
-0.257756
-0.286313
-0.292024
-0.280601
-0.257756
-0.257756
-0.246334
-0.223489
-0.234911
-0.246334
-0.263468
-0.252045
-0.269179
-0.326291
-0.314869
-0.314869
-0.314869
-0.314869
-0.314869
-0.292024
-0.286313
-0.286313
-0.257756
-0.257756
-0.263468
-0.286313
-0.309158
-0.337714
-0.349136
-0.343425
-0.343425
-0.337714
-0.349136
-0.371981
-0.371981
-0.383404
-0.400538
-0.400538
-0.377693
-0.371981
-0.371981
-0.343425
-0.343425
-0.343425
-0.343425
-0.343425
-0.343425
-0.343425
-0.343425
-0.366270
-0.371981
-0.371981
-0.371981
-0.377693
-0.360559
-0.337714
-0.303446
-0.286313
-0.263468
-0.217778
-0.337714
-0.411960
-0.360559
-0.349136
-0.314869
-0.286313
-0.234911
-0.183510
-0.137820
-0.103553
-0.092130
-0.114975
-0.309158
-0.349136
-0.389115
-0.474784
-0.234911
0.844515
3.328907
3.740117
1.586977
0.376192
-0.023595
-0.166376
-0.217778
-0.263468
-0.252045
-0.269179
-0.246334
-0.263468
-0.252045
-0.263468
-0.229200
-0.183510
-0.137820
-0.092130
-0.052151
-0.012173
0.022095
0.062074
0.090630
0.176298
0.301946
0.427593
0.587508
0.718867
0.958739
1.175767
1.312837
1.444196
1.444196
1.318548
1.061542
0.793113
0.530396
0.239122
0.067785
0.004961
-0.080708
-0.183510
-0.206355
-0.194933
-0.200644
-0.200644
-0.200644
-0.189221
-0.166376
-0.177799
-0.172088
-0.172088
-0.166376
-0.143531
-0.143531
-0.137820
-0.114975
-0.109264
-0.166376
-0.206355
-0.200644
-0.189221
-0.166376
-0.172088
-0.189221
-0.200644
-0.200644
-0.200644
-0.200644
-0.206355
-0.246334
-0.240623
-0.229200
-0.229200
-0.200644
-0.200644
-0.194933
-0.166376
-0.149243
-0.132109
-0.103553
-0.086419
-0.109264
-0.120686
-0.114975
-0.114975
-0.114975
-0.114975
-0.114975
-0.092130
-0.086419
-0.086419
-0.086419
-0.086419
-0.086419
-0.086419
-0.086419
-0.086419
-0.086419
-0.086419
-0.069285
-0.040729
-0.023595
-0.006461
0.022095
0.027806
0.027806
0.027806
0.027806
0.050651
0.056362
0.056362
0.084919
0.079207
0.096341
0.113475
0.113475
0.142031
0.136320
0.170587
0.221988
0.284812
0.290523
0.341925
0.330502
0.216277
0.142031
0.073496
0.027806
-0.074996
0.056362
0.781691
3.180415
4.328376
2.289460
0.890204
0.450438
0.130608
0.079207
0.016384
0.033517
-0.012173
-0.023595
-0.023595
0.022095
0.062074
0.096341
0.136320
0.170587
0.193432
0.204855
0.319080
0.381903
0.381903
0.404748
0.456150
0.530396
0.656043
0.793113
0.947317
1.124366
1.324259
1.518442
1.661223
1.678357
1.558421
1.427062
1.164344
0.815958
0.547530
0.307657
0.187721
0.164876
0.136320
0.102052
0.067785
0.056362
0.056362
0.056362
0.056362
0.056362
0.056362
0.084919
0.073496
0.050651
0.062074
0.033517
0.027806
0.022095
0.004961
-0.012173
-0.029306
-0.040729
-0.063574
-0.040729
-0.029306
-0.029306
-0.029306
-0.029306
-0.029306
-0.052151
-0.057863
-0.057863
-0.057863
-0.052151
-0.063574
-0.052151
-0.069285
-0.137820
-0.126398
-0.086419
-0.080708
-0.029306
-0.063574
-0.177799
-0.160665
-0.137820
-0.120686
-0.086419
-0.092130
-0.137820
-0.206355
-0.212066
-0.177799
-0.149243
-0.132109
-0.097841
-0.092130
-0.126398
-0.160665
-0.194933
-0.183510
-0.172088
-0.172088
-0.143531
-0.143531
-0.137820
-0.109264
-0.120686
-0.103553
-0.080708
-0.097841
-0.035018
0.050651
0.256256
0.256256
0.033517
-0.046440
-0.057863
-0.080708
-0.132109
0.027806
0.741712
3.037634
4.436890
2.746360
0.993007
0.324791
0.073496
-0.035018
-0.103553
-0.074996
-0.097841
-0.074996
-0.137820
-0.166376
-0.114975
-0.086419
-0.040729
-0.006461
0.027806
0.067785
0.113475
0.124897
0.210566
0.307657
0.404748
0.507551
0.598931
0.787402
0.953028
1.192901
1.432773
1.541287
1.626955
1.638378
1.541287
1.295703
0.998718
0.696022
0.387615
0.164876
0.022095
-0.012173
-0.029306
-0.046440
-0.074996
-0.086419
-0.052151
-0.023595
0.004961
0.039229
0.073496
0.073496
0.050651
0.056362
0.033517
0.027806
0.027806
-0.000750
-0.000750
-0.006461
-0.029306
-0.029306
-0.040729
-0.086419
-0.109264
-0.092130
-0.086419
-0.086419
-0.086419
-0.086419
-0.097841
-0.120686
-0.114975
-0.137820
-0.143531
-0.143531
-0.143531
-0.143531
-0.143531
-0.143531
-0.143531
-0.132109
-0.114975
-0.097841
-0.080708
-0.063574
-0.057863
-0.092130
-0.132109
-0.143531
-0.143531
-0.143531
-0.143531
-0.143531
-0.149243
-0.166376
-0.172088
-0.172088
-0.172088
-0.172088
-0.172088
-0.172088
-0.143531
-0.149243
-0.137820
-0.114975
-0.114975
-0.097841
-0.086419
-0.063574
-0.057863
-0.029306
-0.035018
0.039229
0.182010
0.136320
0.027806
-0.029306
-0.040729
-0.143531
-0.069285
0.564663
2.826318
4.294108
2.500776
0.827381
0.273390
0.004961
0.004961
-0.063574
-0.052151
-0.103553
-0.109264
-0.092130
-0.069285
-0.046440
-0.029306
-0.000750
0.010672
0.056362
0.073496
0.119186
0.130608
0.187721
0.239122
0.261967
0.410460
0.490417
0.661755
0.884493
1.072964
1.272858
1.455618
1.586977
1.558421
1.489886
1.267147
0.964451
0.690311
0.421882
0.221988
0.067785
0.022095
0.004961
-0.017884
-0.035018
-0.057863
-0.074996
-0.092130
-0.109264
-0.126398
-0.143531
-0.137820
-0.114975
-0.114975
-0.120686
-0.109264
-0.120686
-0.103553
-0.149243
-0.257756
-0.257756
-0.263468
-0.286313
-0.286313
-0.274890
-0.252045
-0.257756
-0.234911
-0.229200
-0.223489
-0.257756
-0.292024
-0.286313
-0.286313
-0.286313
-0.286313
-0.303446
-0.332003
-0.337714
-0.394826
-0.434805
-0.400538
-0.389115
-0.360559
-0.343425
-0.366270
-0.371981
-0.371981
-0.371981
-0.371981
-0.360559
-0.343425
-0.343425
-0.343425
-0.343425
-0.343425
-0.360559
-0.371981
-0.371981
-0.371981
-0.383404
-0.377693
-0.371981
-0.366270
-0.349136
-0.337714
-0.354848
-0.371981
-0.371981
-0.371981
-0.371981
-0.371981
-0.354848
-0.326291
-0.309158
-0.292024
-0.257756
-0.274890
-0.320580
-0.314869
-0.309158
-0.292024
-0.286313
-0.280601
-0.240623
-0.212066
-0.183510
-0.166376
-0.177799
-0.172088
-0.332003
-0.383404
-0.394826
-0.446228
-0.269179
0.593220
3.111880
3.882898
1.706913
0.324791
-0.063574
-0.252045
-0.337714
-0.354848
-0.332003
-0.354848
-0.337714
-0.337714
-0.297735
-0.274890
-0.252045
-0.223489
-0.200644
-0.166376
-0.137820
-0.103553
-0.074996
-0.035018
0.039229
0.136320
0.233411
0.381903
0.541818
0.707445
0.913049
1.090098
1.289992
1.369949
1.369949
1.358527
1.175767
0.907338
0.598931
0.290523
0.039229
-0.126398
-0.177799
-0.240623
-0.257756
-0.223489
-0.217778
-0.183510
-0.172088
-0.200644
-0.200644
-0.200644
-0.200644
-0.200644
-0.200644
-0.229200
-0.229200
-0.229200
-0.229200
-0.229200
-0.240623
-0.257756
-0.326291
-0.343425
-0.309158
-0.303446
-0.269179
-0.257756
-0.286313
-0.286313
-0.292024
-0.314869
-0.314869
-0.297735
-0.286313
-0.286313
-0.269179
-0.252045
-0.263468
-0.280601
-0.286313
-0.286313
-0.286313
-0.286313
-0.286313
-0.286313
-0.286313
-0.286313
-0.286313
-0.286313
-0.286313
-0.286313
-0.286313
-0.286313
-0.286313
-0.269179
-0.257756
-0.257756
-0.257756
-0.257756
-0.257756
-0.286313
-0.286313
-0.292024
-0.314869
-0.314869
-0.303446
-0.274890
-0.257756
-0.240623
-0.212066
-0.200644
-0.172088
-0.154954
-0.132109
-0.114975
-0.086419
-0.074996
-0.057863
-0.035018
-0.035018
0.084919
0.079207
-0.052151
-0.240623
-0.314869
-0.309158
-0.354848
-0.229200
1.015852
3.580202
3.614470
1.438484
0.387615
-0.052151
-0.194933
-0.269179
-0.309158
-0.269179
-0.297735
-0.274890
-0.292024
-0.274890
-0.246334
-0.217778
-0.183510
-0.154954
-0.120686
-0.092130
-0.035018
-0.000750
0.050651
0.090630
0.119186
0.256256
0.416171
0.581797
0.724578
0.935894
1.170056
1.347104
1.472752
1.415639
1.284281
1.101521
0.821670
0.456150
0.159165
-0.012173
-0.114975
-0.166376
-0.172088
-0.183510
-0.223489
-0.234911
-0.223489
-0.257756
-0.297735
-0.286313
-0.286313
-0.286313
-0.286313
-0.286313
-0.257756
-0.257756
-0.252045
-0.229200
-0.229200
-0.246334
-0.257756
-0.263468
-0.286313
-0.286313
-0.257756
-0.257756
-0.246334
-0.229200
-0.223489
-0.246334
-0.257756
-0.257756
-0.252045
-0.234911
-0.229200
-0.229200
-0.229200
-0.229200
-0.240623
-0.257756
-0.263468
-0.286313
-0.280601
-0.257756
-0.257756
-0.257756
-0.257756
-0.257756
-0.257756
-0.257756
-0.257756
-0.257756
-0.257756
-0.257756
-0.286313
-0.286313
-0.286313
-0.286313
-0.286313
-0.274890
-0.257756
-0.263468
-0.234911
-0.229200
-0.229200
-0.200644
-0.200644
-0.194933
-0.172088
-0.177799
-0.160665
-0.120686
-0.086419
-0.154954
-0.274890
-0.240623
-0.200644
-0.143531
0.010672
1.472752
3.888610
3.717272
-0.691811
-0.109264
2.123834
3.934300
3.580202
1.438484
0.536107
0.410460
-0.035018
-0.143531
-0.114975
-0.212066
-0.314869
-0.229200
-0.189221
-0.149243
-0.114975
-0.109264
-0.057863
-0.097841
-0.109264
0.027806
0.164876
0.244833
0.341925
0.530396
0.901627
1.090098
1.135788
1.289992
1.369949
1.455618
1.415639
1.295703
1.118654
0.850226
0.656043
0.541818
0.439016
0.456150
0.524685
0.364770
0.301946
0.324791
0.307657
0.319080
0.307657
0.296235
0.279101
0.284812
0.284812
0.284812
0.279101
0.256256
0.244833
0.216277
0.216277
0.176298
0.216277
0.296235
0.279101
0.284812
0.393326
0.884493
1.010141
0.684600
0.673177
0.450438
0.267678
0.221988
0.119186
0.119186
-0.023595
0.044940
-0.309158
0.159165
2.449375
4.139905
3.563069
1.638378
0.855937
0.581797
0.153453
0.124897
0.062074
0.073496
0.004961
0.164876
0.267678
-0.052151
-0.097841
0.044940
-0.000750
-0.023595
0.153453
0.227700
0.279101
0.387615
0.496128
0.867359
1.061542
1.118654
1.415639
1.586977
1.592688
1.575554
1.541287
1.489886
1.284281
1.010141
0.815958
0.598931
0.547530
0.644621
0.587508
0.524685
0.496128
0.456150
0.439016
0.387615
0.381903
0.359058
0.376192
0.467572
0.461861
0.410460
0.364770
0.279101
0.239122
0.210566
0.193432
0.176298
0.142031
0.142031
0.084919
0.182010
0.427593
0.553241
0.775980
0.747423
0.490417
0.330502
0.216277
0.227700
0.130608
-0.012173
-0.114975
-0.160665
-0.463361
-0.246334
1.632667
3.791519
3.768674
1.706913
0.621776
0.416171
0.033517
-0.086419
-0.160665
-0.177799
-0.314869
-0.337714
-0.263468
-0.269179
-0.206355
-0.194933
-0.092130
-0.080708
-0.126398
0.056362
0.084919
0.176298
0.467572
0.564663
0.793113
1.055831
1.107232
1.221457
1.387083
1.392794
1.329971
1.261436
1.204323
0.993007
0.644621
0.553241
0.530396
0.461861
0.439016
0.381903
0.353347
0.307657
0.261967
0.227700
0.176298
0.182010
0.142031
0.239122
0.330502
0.250545
0.187721
0.062074
0.033517
-0.063574
-0.183510
-0.120686
-0.046440
-0.057863
-0.132109
-0.126398
0.010672
0.290523
0.587508
0.524685
0.296235
0.227700
0.079207
0.067785
-0.069285
-0.206355
-0.263468
-0.297735
-0.434805
-0.623276
0.764557
3.009078
3.865765
2.283749
0.536107
0.353347
-0.023595
-0.394826
-0.383404
-0.429094
-0.423383
-0.434805
-0.423383
-0.406249
-0.400538
-0.394826
-0.360559
-0.314869
-0.337714
-0.332003
-0.212066
-0.103553
0.022095
0.176298
0.444727
0.667466
0.895916
1.210034
1.238591
1.204323
1.204323
1.181478
1.072964
0.844515
0.570375
0.250545
0.130608
0.119186
0.067785
0.039229
-0.017884
-0.069285
-0.132109
-0.154954
-0.143531
-0.114975
-0.114975
-0.057863
-0.052151
-0.132109
-0.080708
-0.000750
-0.017884
-0.217778
-0.274890
-0.246334
-0.257756
-0.200644
-0.349136
-0.377693
-0.309158
-0.234911
0.113475
0.387615
0.381903
0.193432
-0.023595
-0.109264
-0.154954
-0.423383
-0.520474
-0.491918
-0.377693
-0.491918
-0.817459
0.307657
2.632135
3.797230
2.226637
0.439016
0.221988
-0.023595
-0.663255
-0.828881
-0.668966
-0.834592
-0.743212
-0.686100
-0.748924
-0.703234
-0.703234
-0.668966
-0.657544
-0.628988
-0.611854
-0.566164
-0.520474
-0.423383
-0.172088
0.136320
0.273390
0.359058
0.616065
0.764557
0.678888
0.747423
0.764557
0.564663
0.353347
0.142031
0.062074
-0.092130
-0.303446
-0.406249
-0.337714
-0.429094
-0.628988
-0.566164
-0.560453
-0.537608
-0.509051
-0.537608
-0.543319
-0.571875
-0.577586
-0.606143
-0.600431
-0.600431
-0.668966
-0.674677
-0.628988
-0.617565
-0.560453
-0.566164
-0.714656
-0.743212
-0.600431
-0.457650
-0.212066
0.050651
-0.120686
-0.394826
-0.503340
-0.286313
-0.417671
-0.965951
-0.983085
-0.834592
-0.794614
-1.388584
-0.748924
1.769737
3.534512
2.832029
0.473283
-0.354848
-0.349136
-0.885994
-1.011641
-0.954529
-1.045909
-1.154422
-1.068754
-1.057331
-1.057331
-0.891705
-1.023064
-1.057331
-0.931684
-1.000219
-0.920261
-0.731790
-0.509051
-0.309158
-0.120686
0.044940
0.204855
0.364770
0.496128
0.678888
0.684600
0.690311
0.667466
0.416171
0.102052
-0.206355
-0.326291
-0.503340
-0.514763
-0.503340
-0.777480
-0.686100
-0.606143
-0.606143
-0.560453
-0.554741
-0.503340
-0.628988
-0.651832
-0.617565
-0.600431
-0.663255
-0.794614
-0.748924
-0.760346
-0.714656
-0.731790
-0.657544
-0.531896
-0.811747
-0.914550
-0.868860
-0.657544
-0.360559
-0.194933
0.073496
-0.166376
-0.480495
-0.486206
-0.583298
-0.646121
-0.720367
-1.017352
-0.994507
-1.068754
-1.394295
0.130608
2.654980
3.597336
1.946785
0.096341
-0.194933
-0.594720
-0.943106
-1.091599
-1.120155
-1.120155
-1.171556
-1.074465
-1.063042
-1.000219
-0.954529
-1.034486
-1.040197
-0.954529
-0.885994
-0.828881
-0.726079
-0.531896
-0.286313
-0.029306
0.073496
0.204855
0.444727
0.496128
0.656043
0.810247
0.621776
0.478995
0.153453
-0.103553
-0.309158
-0.486206
-0.406249
-0.651832
-0.697522
-0.691811
-0.720367
-0.720367
-0.863149
-0.680389
-0.617565
-0.686100
-0.680389
-0.651832
-0.623276
-0.606143
-0.566164
-0.691811
-0.783191
-0.714656
-0.691811
-0.834592
-0.897416
-0.846015
-0.846015
-0.811747
-0.806036
-0.851726
-0.651832
-0.349136
-0.223489
-0.154954
-0.389115
-0.697522
-0.697522
-0.708945
-0.817459
-0.714656
-0.948817
-0.897416
-1.103021
-1.417140
0.301946
2.683536
3.654449
1.855405
-0.080708
-0.252045
-0.668966
-0.994507
-0.994507
-1.108732
-1.137289
-1.097310
-1.074465
-1.051620
-1.023064
-0.994507
-0.943106
-0.914550
-0.863149
-0.777480
-0.714656
-0.554741
-0.497629
-0.314869
-0.006461
0.096341
0.393326
0.558952
0.570375
0.730290
0.730290
0.667466
0.536107
0.284812
0.004961
-0.160665
-0.240623
-0.406249
-0.469073
-0.514763
-0.520474
-0.526185
-0.577586
-0.526185
-0.554741
-0.520474
-0.514763
-0.526185
-0.417671
-0.646121
-0.714656
-0.571875
-0.611854
-0.577586
-0.560453
-0.640410
-0.691811
-0.657544
-0.686100
-0.731790
-0.720367
-0.691811
-0.697522
-0.594720
-0.429094
-0.046440
0.250545
-0.052151
-0.377693
-0.509051
-0.600431
-0.703234
-0.657544
-0.868860
-0.834592
-0.806036
-1.308626
-0.074996
2.437953
3.574491
2.146679
0.393326
0.027806
-0.314869
-0.743212
-0.971662
-0.885994
-0.880282
-0.943106
-0.840304
-0.834592
-0.823170
-0.828881
-0.823170
-0.834592
-0.817459
-0.743212
-0.640410
-0.686100
-0.560453
-0.069285
0.136320
0.250545
0.524685
0.713156
0.758846
0.850226
1.004429
0.970162
0.775980
0.461861
0.439016
0.250545
-0.194933
-0.194933
-0.206355
-0.234911
-0.223489
-0.303446
-0.309158
-0.286313
-0.263468
-0.246334
-0.217778
-0.263468
-0.337714
-0.383404
-0.463361
-0.440516
-0.400538
-0.394826
-0.343425
-0.360559
-0.434805
-0.491918
-0.497629
-0.457650
-0.389115
-0.406249
-0.531896
-0.394826
-0.074996
0.187721
0.239122
-0.012173
-0.149243
-0.217778
-0.332003
-0.417671
-0.457650
-0.583298
-0.503340
-0.509051
-1.063042
-0.120686
2.255193
3.711561
2.626424
0.707445
0.210566
-0.189221
-0.509051
-0.594720
-0.634699
-0.617565
-0.737501
-0.651832
-0.708945
-0.743212
-0.686100
-0.663255
-0.571875
-0.520474
-0.451939
-0.406249
-0.303446
-0.126398
0.004961
0.221988
0.353347
0.638910
0.884493
1.010141
1.232879
1.221457
1.147211
0.964451
0.696022
0.473283
0.290523
0.199143
0.084919
0.073496
0.073496
-0.057863
-0.052151
-0.063574
-0.177799
-0.172088
-0.172088
-0.143531
-0.143531
-0.154954
-0.223489
-0.132109
0.039229
-0.183510
-0.183510
-0.183510
-0.366270
-0.303446
-0.292024
-0.269179
-0.234911
-0.246334
-0.269179
-0.326291
-0.246334
-0.160665
0.073496
0.478995
0.381903
0.090630
-0.023595
-0.189221
-0.337714
-0.440516
-0.400538
-0.531896
-0.474784
-0.691811
-0.777480
1.090098
3.260372
3.488822
1.781159
0.307657
0.090630
-0.217778
-0.526185
-0.531896
-0.503340
-0.469073
-0.606143
-0.640410
-0.503340
-0.474784
-0.423383
-0.377693
-0.343425
-0.280601
-0.234911
-0.166376
-0.114975
0.022095
0.216277
0.444727
0.741712
0.901627
0.998718
1.004429
1.164344
1.295703
1.107232
0.884493
0.673177
0.513262
0.284812
0.107764
0.113475
0.067785
0.067785
0.033517
-0.000750
0.187721
0.084919
-0.023595
0.033517
-0.029306
-0.029306
-0.069285
-0.092130
-0.154954
-0.109264
-0.006461
-0.143531
-0.212066
-0.183510
-0.160665
-0.149243
-0.109264
-0.137820
-0.274890
-0.234911
-0.194933
-0.109264
0.073496
0.461861
0.616065
0.301946
0.124897
0.067785
0.016384
-0.126398
-0.189221
-0.429094
-0.292024
-0.354848
-0.920261
0.501840
2.849163
3.842920
2.546466
0.541818
0.216277
0.079207
-0.354848
-0.497629
-0.514763
-0.440516
-0.474784
-0.651832
-0.674677
-0.611854
-0.600431
-0.560453
-0.543319
-0.520474
-0.469073
-0.411960
-0.183510
0.096341
0.084919
0.324791
0.598931
0.730290
0.941606
0.935894
1.072964
1.135788
1.044408
0.958739
0.747423
0.593220
0.370481
0.119186
0.039229
0.027806
-0.006461
-0.023595
-0.057863
-0.092130
-0.206355
-0.206355
-0.000750
-0.040729
-0.023595
0.056362
-0.080708
-0.160665
-0.029306
-0.080708
-0.354848
-0.366270
-0.314869
-0.286313
-0.240623
-0.206355
-0.212066
-0.366270
-0.423383
-0.371981
-0.326291
-0.166376
0.079207
0.307657
0.216277
-0.046440
-0.074996
-0.149243
-0.286313
-0.457650
-0.474784
-0.377693
-0.457650
-1.000219
-0.794614
1.312837
3.568780
3.545935
1.347104
0.227700
0.142031
-0.286313
-0.606143
-0.754635
-0.657544
-0.743212
-0.806036
-0.766057
-0.731790
-0.691811
-0.646121
-0.663255
-0.737501
-0.674677
-0.640410
-0.554741
-0.360559
-0.160665
-0.017884
0.199143
0.393326
0.490417
0.690311
0.941606
1.095809
1.090098
0.958739
0.758846
0.381903
0.182010
0.164876
-0.074996
-0.154954
-0.200644
-0.314869
-0.326291
-0.172088
-0.217778
-0.429094
-0.337714
-0.417671
-0.360559
-0.292024
-0.423383
-0.417671
-0.406249
-0.377693
-0.360559
-0.343425
-0.377693
-0.491918
-0.526185
-0.406249
-0.469073
-0.646121
-0.634699
-0.600431
-0.628988
-0.651832
-0.320580
0.033517
0.187721
0.239122
0.067785
-0.126398
-0.274890
-0.097841
-0.337714
-0.800325
-0.737501
-0.571875
-0.925972
-0.983085
0.975873
3.386020
3.637315
1.581266
0.233411
0.119186
-0.440516
-0.800325
-0.223489
-0.286313
-0.411960
-0.377693
-0.366270
-0.337714
-0.320580
-0.303446
-0.263468
-0.234911
-0.206355
-0.172088
-0.143531
-0.189221
-0.217778
-0.177799
-0.069285
0.084919
0.256256
0.450438
0.633198
0.901627
1.118654
1.164344
1.141499
1.084387
0.930183
0.667466
0.410460
0.176298
0.022095
-0.035018
-0.069285
-0.114975
-0.160665
-0.189221
-0.177799
-0.172088
-0.172088
-0.172088
-0.177799
-0.154954
-0.143531
-0.143531
-0.126398
-0.109264
-0.120686
-0.137820
-0.149243
-0.137820
-0.160665
-0.212066
-0.234911
-0.229200
-0.229200
-0.229200
-0.234911
-0.217778
-0.194933
-0.206355
-0.177799
-0.172088
-0.166376
-0.149243
-0.132109
-0.114975
-0.103553
-0.074996
-0.154954
-0.200644
-0.154954
-0.132109
-0.086419
-0.069285
-0.017884
0.039229
0.142031
0.233411
0.176298
0.159165
0.096341
0.084919
0.027806
-0.023595
-0.092130
-0.172088
-0.120686
-0.166376
-0.017884
0.136320
2.712093
4.882367
1.706913
-0.566164
-0.263468
-0.377693
-0.274890
-0.297735
-0.257756
-0.240623
-0.229200
-0.189221
-0.194933
-0.149243
-0.149243
-0.103553
-0.040729
0.010672
0.079207
0.142031
0.216277
0.313368
0.456150
0.690311
0.958739
1.221457
1.392794
1.484174
1.484174
1.387083
1.164344
0.793113
0.490417
0.296235
0.199143
0.159165
0.119186
0.079207
0.039229
0.004961
0.027806
0.113475
0.159165
0.142031
0.113475
0.102052
0.079207
0.050651
0.102052
0.153453
0.130608
0.119186
0.102052
0.084919
0.079207
0.044940
0.004961
-0.035018
-0.074996
-0.109264
-0.137820
-0.143531
-0.143531
-0.143531
-0.143531
-0.149243
-0.172088
-0.172088
-0.172088
-0.177799
-0.166376
-0.194933
-0.194933
-0.035018
0.130608
0.096341
0.210566
0.267678
0.113475
-0.023595
-0.086419
-0.172088
-0.292024
-0.240623
-0.286313
-0.160665
-0.063574
2.460798
4.625361
1.524153
-0.577586
-0.360559
-0.526185
-0.411960
-0.486206
-0.411960
-0.394826
-0.371981
-0.320580
-0.309158
-0.263468
-0.252045
-0.206355
-0.200644
-0.154954
-0.154954
-0.206355
-0.109264
0.056362
0.239122
0.427593
0.616065
0.844515
1.032986
1.135788
1.107232
0.947317
0.701733
0.427593
0.227700
0.056362
-0.137820
-0.183510
-0.166376
-0.166376
-0.137820
-0.149243
-0.126398
-0.114975
-0.114975
-0.114975
-0.114975
-0.114975
-0.143531
-0.143531
-0.143531
-0.143531
-0.149243
-0.132109
-0.092130
-0.189221
-0.246334
-0.223489
-0.234911
-0.223489
-0.234911
-0.217778
-0.177799
-0.149243
-0.120686
-0.086419
-0.057863
-0.023595
0.073496
0.142031
0.142031
0.090630
0.102052
0.027806
-0.000750
-0.114975
-0.343425
-0.246334
-0.332003
-0.246334
0.079207
2.780628
4.499713
0.913049
-0.828881
-0.297735
-0.509051
-0.400538
-0.526185
-0.469073
-0.486206
-0.491918
-0.474784
-0.503340
-0.474784
-0.497629
-0.480495
-0.491918
-0.480495
-0.429094
-0.371981
-0.286313
-0.114975
0.050651
0.210566
0.450438
0.707445
0.833092
0.833092
0.804536
0.610353
0.341925
0.119186
-0.126398
-0.292024
-0.423383
-0.531896
-0.560453
-0.566164
-0.531896
-0.497629
-0.474784
-0.434805
-0.406249
-0.423383
-0.491918
-0.514763
-0.514763
-0.543319
-0.537608
-0.571875
-0.606143
-0.600431
-0.600431
-0.600431
-0.623276
-0.646121
-0.674677
-0.680389
-0.646121
-0.549030
-0.366270
-0.417671
-0.486206
-0.389115
-0.497629
-0.731790
-0.720367
-0.743212
-0.794614
-0.726079
-0.874571
-0.726079
-0.446228
2.238059
4.105637
0.530396
-1.388584
-0.908839
-1.108732
-0.977374
-1.057331
-1.017352
-1.017352
-0.983085
-0.937395
-0.931684
-0.874571
-0.868860
-0.817459
-0.788902
-0.748924
-0.708945
-0.674677
-0.634699
-0.537608
-0.343425
-0.126398
0.130608
0.347636
0.553241
0.633198
0.444727
0.267678
0.067785
-0.206355
-0.526185
-0.743212
-0.811747
-0.834592
-0.828881
-0.891705
-0.897416
-0.880282
-0.885994
-0.857437
-0.857437
-0.857437
-0.857437
-0.857437
-0.857437
-0.857437
-0.857437
-0.857437
-0.857437
-0.857437
-0.857437
-0.857437
-0.851726
-0.828881
-0.828881
-0.828881
-0.828881
-0.891705
-0.846015
-0.754635
-0.714656
-0.686100
-0.668966
-0.617565
-0.708945
-0.965951
-1.023064
-0.965951
-1.028775
-0.908839
-1.051620
-0.977374
-0.806036
1.187189
3.940011
1.215746
-1.605611
-1.103021
-1.194401
-1.103021
-1.103021
-1.080176
-1.040197
-1.182979
-1.131577
-1.108732
-1.034486
-1.005930
-0.971662
-0.943106
-0.908839
-0.874571
-0.851726
-0.771769
-0.703234
-0.549030
-0.286313
-0.057863
0.170587
0.364770
0.364770
0.296235
0.216277
-0.063574
-0.354848
-0.549030
-0.726079
-0.868860
-0.965951
-0.983085
-0.971662
-0.954529
-0.937395
-0.920261
-0.908839
-0.891705
-0.874571
-0.857437
-0.840304
-0.823170
-0.840304
-0.863149
-0.851726
-0.863149
-0.851726
-0.868860
-0.943106
-0.925972
-0.891705
-0.874571
-0.840304
-0.828881
-0.828881
-0.828881
-0.828881
-0.897416
-0.920261
-0.891705
-0.885994
-0.857437
-0.857437
-0.851726
-0.863149
-0.817459
-0.628988
-0.531896
-0.531896
-0.514763
-0.583298
-0.589009
-0.606143
-0.600431
-0.617565
-0.783191
-0.726079
-0.834592
-0.686100
-0.486206
1.792582
4.476868
1.638378
-1.125866
-0.868860
-0.925972
-0.794614
-0.800325
-0.771769
-0.720367
-0.714656
-0.657544
-0.657544
-0.606143
-0.600431
-0.560453
